127,1942
127,1942
127,1942
127,1942
127,1942
127,1942
127,1942
127,1942
127,1942
127,1942
127,1942
127,1942
127,1942
127,1942
127,1942
127,1942
127,1942
127,1942
127,1942
127,1942
127,1942
127,1942
127,1942
127,1942
127,1942
127,1942
127,1942
127,1942
127,1942
127,1942
127,1942
127,1942
127,1942
127,1942
127,1942
127,1942
127,1942
127,1942
127,1942
127,1942
127,1942
127,1942
127,1942
127,1942
127,1942
127,1942
127,1942
127,1942
127,1942
127,1942
127,1942
127,1942
127,1942
127,1942
127,1942
127,1942
127,1942
127,1942
127,1942
127,1942
127,1942
127,1942
127,1942
127,1942
127,1942
127,1942
127,1942
127,1942
127,1942
127,1942
127,1942
127,1942
127,1942
127,1942
127,1942
127,1942
127,1942
127,1942
127,1942
127,1942
127,1942
127,1942
127,1942
127,1942
127,1942
127,1942
127,1942
127,1942
127,1942
127,1942
127,1942
127,1942
127,1942
127,1942
127,1942
127,1942
127,1942
127,1942
127,1942
127,1942
127,1942
127,1942
127,1942
127,1942
127,1942
127,1942
127,1942
127,1942
127,1942
127,1942
127,1942
127,1942
127,1942
127,1942
127,1942
127,1942
127,1942
127,1942
127,1942
127,1942
127,1942
127,1942
127,1942
127,1942
127,1942
127,1942
127,1942
127,1942
127,1942
127,1942
127,1942
127,1942
127,1942
127,1942
127,1942
127,1942
127,1942
127,1942
127,1942
127,1942
127,1942
127,1942
127,1942
127,1942
127,1942
127,1942
127,1942
127,1942
127,1942
127,1942
127,1942
127,1942
127,1942
127,1942
127,1942
127,1942
127,1942
127,1942
127,1942
127,1942
127,1942
127,1942
127,1942
127,1942
127,1942
127,1942
127,1942
127,1942
127,1942
127,1942
127,1942
127,1942
127,1942
127,1942
127,1942
127,1942
127,1942
127,1942
127,1942
127,1942
127,1942
127,1942
127,1942
127,1942
127,1942
127,1942
127,1942
127,1942
127,1942
127,1942
127,1942
127,1942
127,1942
127,1942
127,1942
127,1942
127,1942
127,1942
127,1942
127,1942
127,1942
127,1942
127,1942
127,1942
127,1942
127,1942
127,1942
127,1942
127,1942
127,1942
127,1942
127,1942
127,1942
127,1942
127,1942
127,1942
127,1942
127,1942
127,1942
127,1942
127,1942
127,1942
127,1942
127,1942
127,1942
127,1942
127,1942
127,1942
127,1942
127,1942
127,1942
127,1942
127,1942
127,1942
127,1942
127,1942
127,1942
127,1942
127,1942
127,1942
127,1942
127,1942
127,1942
127,1942
127,1942
127,1942
127,1942
127,1942
127,1942
127,1942
127,1942
127,1942
127,1942
127,1942
127,1942
127,1942
127,1942
127,1942
127,1942
127,1942
127,1942
127,1942
127,1942
127,1942
127,1942
127,1942
127,1942
127,1942
127,1942
127,1942
127,1942
127,1942
127,1942
127,1942
127,1942
127,1942
127,1942
127,1942
127,1942
127,1942
127,1942
127,1942
127,1942
127,1942
127,1942
127,1942
127,1942
127,1942
127,1942
127,1942
127,1942
127,1942
127,1942
127,1942
127,1942
127,1942
127,1942
127,1942
127,1942
127,1942
127,1942
127,1942
127,1942
127,1942
127,1942
127,1942
127,1942
127,1942
127,1942
127,1942
127,1942
127,1942
127,1942
127,1942
127,1942
127,1942
127,1942
127,1942
127,1942
127,1942
127,1942
127,1942
127,1942
127,1942
127,1942
127,1942
127,1942
127,1942
127,1942
127,1942
127,1942
127,1942
127,1942
127,1942
127,1942
127,1942
127,1942
127,1942
127,1942
127,1942
127,1942
127,1942
127,1942
127,1942
127,1942
127,1942
127,1942
127,1942
127,1942
127,1942
127,1942
127,1942
127,1942
127,1942
127,1942
127,1942
127,1942
127,1942
127,1942
127,1942
127,1942
127,1942
127,1942
127,1942
127,1942
127,1942
127,1942
127,1942
127,1942
127,1942
127,1942
127,1942
127,1942
127,1942
127,1942
127,1942
127,1942
127,1942
127,1942
127,1942
127,1942
127,1942
127,1942
127,1942
127,1942
127,1942
127,1942
127,1942
127,1942
127,1942
127,1942
127,1942
127,1942
127,1942
127,1942
127,1942
127,1942
127,1942
127,1942
127,1942
127,1942
127,1942
127,1942
127,1942
127,1942
127,1942
127,1942
127,1942
127,1942
127,1942
127,1942
127,1942
127,1942
127,1942
127,1942
127,1942
127,1942
127,1942
127,1942
127,1942
127,1942
127,1942
127,1942
127,1942
127,1942
127,1942
127,1942
127,1942
127,1942
127,1942
127,1942
127,1942
127,1942
127,1942
127,1942
127,1942
127,1942
127,1942
127,1942
127,1942
127,1942
127,1942
127,1942
127,1942
127,1942
127,1942
127,1942
127,1942
127,1942
127,1942
127,1942
127,1942
127,1942
127,1942
127,1942
127,1942
127,1942
127,1942
127,1942
127,1942
127,1942
127,1942
127,1942
127,1942
127,1942
127,1942
127,1942
127,1942
127,1942
127,1942
127,1942
127,1942
127,1942
127,1942
127,1942
127,1942
127,1942
127,1942
127,1942
127,1942
127,1942
127,1942
127,1942
127,1942
127,1942
127,1942
127,1942
127,1942
127,1942
127,1942
127,1942
127,1942
127,1942
127,1942
127,1942
127,1942
127,1942
127,1942
127,1942
127,1942
127,1942
127,1942
127,1942
127,1942
127,1942
127,1942
127,1942
127,1942
127,1942
127,1942
127,1942
127,1942
127,1942
127,1942
127,1942
127,1942
127,1942
127,1942
127,1942
127,1942
127,1942
127,1942
127,1942
127,1942
127,1942
127,1942
127,1942
127,1942
127,1942
127,1942
127,1942
127,1942
127,1942
127,1942
127,1942
127,1942
127,1942
127,1942
127,1942
127,1942
127,1942
127,1942
127,1942
127,1942
127,1942
127,1942
127,1942
127,1942
127,1942
127,1942
127,1942
127,1942
127,1942
127,1942
127,1942
127,1942
127,1942
127,1942
127,1942
127,1942
127,1942
127,1942
127,1942
127,1942
127,1942
127,1942
127,1942
127,1942
127,1942
127,1942
127,1942
127,1942
127,1942
127,1942
1034,976
-656,1127
-24,37134
-485,5133
-501,3245
-428,9154
-1098,523
-1719,489
-370,4041
-474,3347
-497,2961
-140,4877
-768,3014
174,9298
-820,9717
1,712036
-1401,05
-136,5601
-218,6371
-202,6245
-7,754517
-102,2186
-54,38232
-1411,523
305,0446
-22,86072
36,35559
17,82532
-231,9305
265,9698
-557,016
479,3701
-1164,89
109,5703
122,4609
-42,19666
478,0609
-65,56091
213,501
-702,8412
208,667
120,5475
-77,948
470,7092
-153,9825
345,7306
-506,2592
-20,24231
-939,6057
214,0045
113,8
-47,63489
585,0128
-37,56409
180,0659
-1042,831
359,2255
262,3444
65,86304
183,2886
-68,48145
349,1547
-440,5975
536,8744
-878,1738
386,5173
-223,3704
118,7347
289,5355
57,70569
251,5686
-1090,768
222,3633
-980,7953
180,4688
148,7457
-43,70728
261,1359
-323,6755
375,5402
-8,660889
-5,136108
-2,719116
8,056641
-3,121948
-1,51062
3,424072
-8,358765
-12,99133
-2,719116
2,316284
-0,50354
-3,52478
-2,5177
1,409912
-6,243896
-9,970093
-9,869385
-1,51062
-8,761597
1,51062
-5,841064
0,7049561
3,826904
0,7049561
-1,611328
1,611328
-1,712036
-3,726196
2,01416
-0,50354
1,51062
-3,02124
-6,445313
-4,330444
-2,618408
4,129028
-4,431152
-1,107788
-3,726196
5,236816
-4,129028
-2,01416
-4,330444
-0,50354
-0,7049561
-13,49487
-11,07788
-2,920532
5,841064
-2,819824
1,409912
4,53186
-5,53894
7,351685
8,862305
-0,9063721
1,913452
-4,02832
0,8056641
0
16,41541
-9,869385
-2,114868
0,201416
-4,733276
4,833984
0,100708
-18,63098
14,80408
-18,42957
24,67346
-36,25488
54,28162
-24,27063
50,95825
-21,24939
19,83948
7,452393
4,129028
-15,71045
-37,06055
26,48621
-4,330444
59,41772
-56,09436
135,6537
-65,56091
-10,57434
-165,3625
-70,19348
62,33826
-126,3885
-66,16516
-6,445313
-33,83789
4,229736
6,445313
4,02832
-22,55859
-3,826904
-4,733276
-54,0802
-69,08569
149,1486
-27,09045
-33,73718
98,59314
-55,89294
-38,67188
-16,41541
-5,236816
-55,49011
7,754517
-23,06213
27,19116
-25,37842
31,92444
-67,17224
-13,39417
-5,941772
20,54443
-5,136108
-43,50586
6,848145
2,719116
86,70959
-21,95435
43,80798
18,42957
-5,0354
-3,927612
-43,10303
8,560181
-1,51062
-4,733276
-5,639648
10,17151
39,57825
-182,4829
148,5443
147,1344
58,10852
-59,21631
-15,00549
-9,164429
-5,53894
-2,215576
-0,7049561
4,733276
7,351685
7,150269
6,546021
-1,00708
4,934692
9,667969
1,00708
7,855225
-4,129028
-12,48779
-9,265137
-2,114868
-2,819824
-13,99841
-6,848145
-3,424072
-4,02832
-3,121948
-0,100708
0,100708
-2,01416
-1,812744
6,747437
-0,100708
8,560181
9,164429
-9,265137
-3,726196
5,740356
3,222656
-0,402832
0,604248
-0,100708
-7,351685
-3,323364
3,726196
-0,7049561
3,726196
-5,841064
-1,208496
-3,323364
-4,431152
-1,00708
2,920532
-1,00708
-6,04248
-1,107788
3,222656
3,02124
-0,9063721
-2,114868
-2,215576
-1,107788
-1,107788
-0,100708
-4,632568
0,100708
-7,351685
-2,618408
3,726196
1,51062
14,90479
15,60974
-14,09912
0,7049561
-39,27612
36,35559
-7,955933
-9,768677
11,58142
5,941772
18,22815
-31,21948
32,42798
-12,48779
-0,9063721
12,68921
-1,913452
27,99683
-12,78992
17,6239
-72,00623
14,80408
23,56567
8,963013
13,49487
1,913452
3,625488
-1,00708
21,3501
59,31702
55,2887
-242,6056
-55,79224
-28,80249
2,316284
7,049561
-1,409912
6,445313
7,855225
15,60974
-18,42957
133,9417
-0,100708
-9,466553
16,81824
-8,761597
3,625488
-8,560181
-3,927612
-63,44604
-4,934692
11,07788
11,48071
-7,452393
-2,316284
3,927612
16,3147
6,143188
3,222656
19,13452
-16,41541
-20,64514
3,424072
3,726196
10,47363
-7,049561
15,00549
10,47363
-44,31152
34,14001
-21,24939
-6,747437
9,164429
-32,93152
-39,88037
46,72852
-38,26904
-1,107788
-27,29187
-19,23523
-14,80408
-47,23206
-13,59558
-5,841064
-35,14709
-1,107788
1,00708
-2,01416
-3,52478
-10,27222
40,48462
5,639648
5,53894
-0,604248
-26,08337
-15,71045
-30,91736
-7,754517
-4,02832
-5,941772
5,136108
-23,96851
15,40833
-16,71753
1,913452
-0,100708
-2,114868
31,01807
40,2832
-3,927612
58,20923
46,42639
86,70959
-119,4397
-32,93152
-52,26746
-3,927612
78,04871
-7,553101
-83,88977
85,19897
5,337524
-206,3507
-6,445313
133,9417
-149,5514
112,793
146,6309
-87,31384
15,30762
55,69153
60,52551
-53,87878
246,3318
-95,77332
39,98108
27,49329
9,063721
-37,86621
0,7049561
224,4781
-97,18323
278,8605
99,60022
-37,56409
19,83948
-16,61682
58,51135
93,15491
-92,55066
-31,4209
-12,38708
27,39258
-14,80408
-90,03296
18,42957
-123,9716
-53,57666
107,254
45,11719
163,4491
53,57666
-5,236816
22,15576
102,5208
-66,26587
-25,27771
-78,65295
94,3634
105,4413
86,50818
210,379
-36,75842
-20,24231
-28,39966
-2,114868
73,21472
-86,40747
11,38
-7,351685
-45,3186
-25,68054
18,8324
27,59399
-48,64197
-10,27222
5,438232
18,93311
60,62622
-140,6891
200,3082
-16,51611
-319,2444
37,16125
185,202
46,5271
-125,9857
6,143188
-36,65771
-33,43506
-224,6796
-47,8363
16,41541
-66,6687
122,6624
-96,27686
-255,899
107,0526
-66,16516
-132,0282
-232,8369
-123,3673
-264,1571
-69,79065
57,40356
-48,03772
64,05029
-142,3004
7,452393
-92,75208
142,7032
-70,69702
-100,5066
40,68604
-24,06921
129,6112
222,8668
102,9236
-111,0809
160,025
-31,11877
-106,4484
9,567261
-43,50586
-71,90552
-48,03772
-570,108
-152,8748
120,9503
48,44055
-105,4413
34,34143
-206,3507
221,9604
-127,7985
-154,5868
69,48853
-151,2634
-140,4877
48,64197
-280,6732
-194,9707
65,3595
-22,6593
-94,76624
-106,1462
55,69153
75,4303
149,1486
-37,56409
-12,78992
-154,0833
-115,21
-82,88269
-71,09985
92,44995
265,3656
112,5916
-182,785
77,04163
-141,2933
35,75134
88,52234
-43,30444
8,963013
249,7559
-248,0438
-221,2555
81,47278
-162,9456
-184,4971
-95,47119
23,8678
-76,84021
-9,567261
-141,2933
-86,40747
277,7527
-70,29419
97,68677
44,0094
-89,328
-121,5546
-63,74817
-34,64355
132,7332
-176,4404
97,18323
151,4648
55,2887
-14,30054
-29,60815
-35,75134
160,6293
-674,7437
329,8187
-439,1876
-64,65454
-63,44604
-4,229736
-215,8173
206,5521
-3,625488
18,8324
459,7321
-362,7502
127,4963
159,5215
12,08496
-241,3971
-152,1698
352,1759
-176,3397
240,1886
-204,3365
-144,7174
-338,681
147,5372
133,2367
-30,11169
70,19348
-45,3186
3,52478
344,4214
-236,5631
118,9362
-207,8613
247,0367
-30,2124
266,7755
126,2878
-9,768677
-7,351685
-236,7645
145,2209
10,47363
-224,7803
102,1179
553,7933
101,5137
114,4043
-239,5844
67,77649
227,4994
-51,26038
-13,89771
205,545
158,8165
223,6725
119,9432
-11,17859
55,18799
190,2374
245,7275
-315,4175
-70,89844
108,0597
69,99207
305,246
90,5365
645,639
-199,3011
74,02039
28,19824
-134,6466
-605,3558
66,87012
46,5271
-209,2712
-126,7914
-131,9275
502,533
-41,29028
44,61365
150,7599
42,09595
462,149
-227,6001
224,2767
572,525
89,22729
196,9849
93,96057
30,81665
122,0581
196,4813
115,7135
27,09045
56,69861
-268,7897
62,64038
-155,2917
-367,1814
76,53809
568,1946
28,70178
-111,6852
-65,86304
133,9417
-540,9027
-206,7535
-320,4529
-264,3585
-4,229736
28,29895
268,2861
-0,9063721
-255,6976
9,164429
-14,70337
-7,351685
271,3074
19,63806
64,85596
-119,339
237,3688
-301,2177
131,1218
154,0833
46,02356
-14,50195
84,39331
38,36975
-64,65454
116,8213
-88,92517
-138,0707
288,327
1,107788
0,7049561
6,143188
420,1538
0,9063721
230,0171
16,11328
-142,5018
-43,70728
-91,34216
129,1077
-498,7061
716,2354
-118,5333
85,80322
34,94568
121,3531
308,8715
-68,17932
-35,04639
208,8684
231,6284
15,71045
-23,26355
219,4427
16,91895
-107,3547
-56,90002
-474,4354
-73,01331
82,58057
-119,6411
64,95667
29,91028
-57,10144
-7,452393
45,01648
113,0951
-174,9298
-84,2926
929,0314
-76,84021
-161,0321
-81,67419
-116,1163
-78,25012
56,09436
28,09753
90,33508
-120,3461
-283,1909
104,7363
-39,17542
-37,96692
55,08728
-92,95349
110,7788
-219,8456
-48,64197
489,9445
-93,35632
-188,2233
54,88586
34,74426
-52,771
82,68127
269,1925
-15,81116
-199,3011
357,2113
23,76709
-350,5646
272,818
-136,8622
137,8693
-93,45703
160,8307
-31,52161
-162,8448
-10,27222
-49,64905
192,6544
-138,0707
128,2013
-136,7615
-118,0298
144,8181
-185,7056
-228,7079
34,14001
344,8242
-46,02356
-122,2595
101,7151
-304,8431
-97,08252
-13,29346
-1,712036
39,57825
132,431
17,12036
310,4828
81,87561
-130,1147
121,5546
-59,92126
-152,6733
96,98181
272,6166
-83,78906
-23,8678
-87,91809
295,2759
8,862305
-271,8109
75,63171
178,9581
-314,5111
577,0569
196,8842
240,7928
168,4845
86,8103
-221,759
-162,442
-53,47595
28,39966
-311,087
163,147
271,0052
-102,8229
8,157349
85,09827
-56,49719
-187,8204
42,19666
122,2595
62,53967
8,258057
44,0094
101,3123
-79,15649
-86,91101
117,1234
-143,7103
-127,6978
-108,1604
-13,89771
-27,59399
4,129028
-3,625488
-120,7489
19,43665
24,87488
-36,65771
8,560181
68,38074
11,07788
-167,4774
-33,73718
-215,213
-3,02124
73,81897
31,82373
114,6057
29,10461
66,56799
266,6748
-30,01099
351,0681
-90,23438
206,1493
-102,42
-293,866
-68,28003
-57,30286
52,46887
69,08569
-129,5105
-42,39807
-99,3988
-102,6215
-36,4563
96,7804
24,67346
24,27063
-25,68054
10,87646
37,06055
39,47754
47,43347
-76,7395
41,08887
-48,23914
46,42639
-47,93701
39,57825
-2,416992
-44,41223
-10,97717
-34,14001
-23,56567
5,136108
-75,93384
9,768677
-78,85437
8,761597
-34,94568
-6,344604
-28,19824
25,37842
-15,91187
84,2926
-54,88586
39,17542
-15,60974
38,36975
25,88196
-19,63806
-17,72461
0,604248
-18,63098
-27,6947
22,6593
6,948853
21,04797
7,250977
19,03381
11,07788
29,30603
-26,88904
-26,68762
12,08496
29,80957
8,761597
-5,639648
3,02124
-6,243896
-18,53027
-34,34143
3,52478
-22,05505
-129,3091
51,66321
-44,61365
-39,27612
-2,01416
-10,27222
-13,39417
5,236816
-1,309204
-0,604248
-4,02832
10,17151
-10,37292
11,17859
7,150269
-2,215576
3,826904
-2,719116
-17,42249
-2,719116
-4,229736
-7,855225
-18,63098
-12,89063
-14,30054
0,8056641
-12,99133
0,50354
2,618408
12,38708
-4,53186
3,222656
8,157349
3,52478
3,826904
1,812744
8,963013
1,913452
3,222656
-10,77576
-3,927612
-10,87646
-5,337524
-7,955933
-4,53186
0,201416
1,409912
-1,812744
1,913452
-10,17151
-5,0354
-9,365845
-4,330444
-14,60266
-0,50354
3,02124
-11,98425
-3,927612
-12,68921
-6,848145
4,934692
-5,941772
-6,546021
-4,733276
4,129028
-4,733276
-0,604248
-0,100708
7,150269
11,88354
-6,445313
7,250977
1,51062
-2,01416
-6,948853
6,04248
2,920532
2,618408
-3,625488
0
2,416992
-7,452393
11,88354
-6,344604
-1,107788
-3,222656
-6,546021
0,9063721
2,215576
-6,445313
-3,121948
-7,653809
-9,567261
-3,424072
-0,7049561
-3,927612
-7,150269
0,100708
-2,114868
0,7049561
-1,208496
12,99133
-1,309204
-1,611328
3,625488
3,52478
-8,963013
-3,52478
0
4,02832
-3,927612
4,129028
-0,302124
-5,53894
-2,719116
-0,201416
-5,941772
-0,100708
-1,812744
-1,712036
-9,768677
1,712036
-2,01416
1,409912
-7,049561
5,337524
-1,107788
-1,00708
-3,927612
1,00708
-7,855225
1,107788
-11,07788
2,114868
-2,316284
-0,604248
-5,53894
-8,963013
-5,941772
-7,653809
7,452393
6,445313
-6,646729
2,316284
-5,941772
-3,424072
0,604248
5,639648
-7,553101
-5,841064
2,618408
3,927612
-0,201416
0,9063721
-10,87646
4,53186
-2,719116
-6,143188
0,604248
-3,826904
0,7049561
-1,611328
4,53186
-7,150269
9,466553
0,50354
-5,136108
-2,920532
-6,04248
5,236816
4,934692
2,215576
-0,100708
5,941772
-6,747437
-9,667969
1,712036
-8,560181
5,136108
-7,553101
-6,948853
-1,309204
1,611328
2,719116
0,100708
-5,841064
-6,243896
2,114868
4,02832
-5,941772
6,646729
3,222656
6,747437
-9,265137
-6,143188
2,114868
-7,150269
10,77576
9,768677
-5,0354
3,52478
-2,416992
2,416992
-7,653809
-0,7049561
-2,114868
-0,100708
2,618408
-3,726196
-3,222656
-0,302124
-5,438232
-0,50354
-4,53186
-4,53186
-1,812744
-8,056641
-2,114868
6,445313
-0,100708
-1,309204
-0,100708
2,114868
-6,747437
-0,7049561
-2,618408
2,114868
-2,719116
2,215576
-0,8056641
-4,229736
0,402832
0,50354
-0,50354
-3,826904
-0,402832
1,309204
5,337524
-1,51062
-4,733276
3,02124
-13,797
-1,913452
0
-0,9063721
-9,265137
9,164429
4,229736
4,53186
-9,265137
-3,02124
3,222656
2,819824
2,920532
-7,150269
1,107788
-0,9063721
-7,150269
8,358765
-6,243896
5,337524
-2,316284
-0,100708
-4,129028
7,955933
-3,121948
-4,632568
-1,107788
-4,53186
-3,02124
-7,855225
-7,553101
-3,121948
0,9063721
-0,100708
-8,963013
-0,7049561
-1,409912
7,754517
-8,056641
-3,424072
-5,337524
-13,39417
6,848145
-7,553101
4,229736
3,02124
1,611328
-2,215576
2,618408
6,747437
4,53186
-6,04248
-2,416992
3,424072
-1,611328
-7,653809
0,9063721
-2,114868
1,913452
-6,243896
3,222656
-11,88354
-2,719116
0,7049561
-4,129028
3,52478
-5,438232
3,323364
-4,733276
-1,00708
-8,761597
0,604248
7,955933
-1,913452
-11,07788
9,365845
-5,53894
-1,611328
-0,9063721
-0,100708
-7,150269
-12,48779
-6,445313
3,02124
-4,129028
-5,0354
-3,323364
1,913452
-2,618408
4,632568
-8,560181
-9,466553
-5,136108
2,114868
2,316284
-6,143188
-5,0354
-11,07788
4,934692
11,98425
-1,51062
-3,927612
-2,215576
5,53894
5,236816
-2,920532
0,402832
-2,316284
-2,316284
-1,309204
-3,02124
3,625488
-4,02832
1,812744
-2,215576
0,402832
1,00708
-8,560181
1,712036
-0,100708
-3,927612
-1,00708
1,913452
0,100708
3,52478
-9,164429
7,150269
1,00708
1,309204
-2,215576
-0,402832
-4,229736
1,409912
-2,920532
-3,121948
-1,712036
-5,337524
1,00708
-4,02832
-0,100708
-4,229736
-8,358765
-9,567261
-5,53894
2,316284
-0,9063721
-2,5177
2,215576
6,143188
9,768677
1,409912
2,920532
-3,726196
-4,733276
1,309204
2,618408
2,5177
1,107788
-14,09912
2,819824
-3,826904
-2,719116
2,5177
-7,150269
1,409912
-2,114868
-5,337524
7,049561
-1,409912
-2,719116
2,5177
-0,8056641
-15,40833
-3,323364
-7,150269
-5,438232
-2,819824
0,604248
2,114868
0,302124
-7,150269
-11,88354
-0,8056641
-3,826904
0,50354
5,438232
-0,201416
-7,351685
1,913452
-0,402832
-2,01416
-3,121948
2,5177
-3,121948
-1,309204
7,653809
-10,87646
-3,726196
-0,100708
1,107788
1,812744
-0,100708
6,546021
3,02124
0,302124
-8,056641
-1,107788
0,8056641
-6,243896
-1,51062
-10,17151
-1,812744
-1,107788
-2,920532
-4,330444
-12,18567
6,747437
-3,323364
-3,02124
1,00708
0,50354
-6,747437
5,136108
-13,29346
-4,833984
-1,208496
0,201416
-5,53894
-2,5177
-6,747437
2,01416
-2,01416
0,302124
7,553101
-8,560181
6,143188
-0,302124
6,848145
-5,740356
-4,53186
2,215576
-6,143188
-2,416992
9,063721
-9,567261
5,0354
-4,632568
1,309204
-0,100708
-3,02124
1,812744
-5,438232
-1,712036
-10,0708
6,848145
6,143188
6,04248
3,323364
9,869385
-5,53894
1,812744
-1,913452
-0,8056641
1,00708
-2,920532
-1,812744
4,129028
-6,445313
-7,150269
2,920532
-7,150269
-9,164429
-3,52478
-5,740356
-7,049561
-1,51062
-1,913452
-6,243896
4,129028
-6,948853
0,9063721
2,618408
-5,438232
-2,114868
-1,812744
-0,302124
8,358765
-4,129028
-2,215576
-7,955933
-0,604248
-2,114868
1,913452
-7,553101
-0,100708
-0,302124
-7,452393
-10,17151
-2,5177
8,761597
-1,309204
-1,309204
-8,358765
-3,52478
3,424072
3,726196
6,04248
8,358765
-2,920532
-4,02832
-12,48779
-0,100708
1,812744
-0,100708
-2,5177
0,201416
-0,302124
-2,819824
-1,00708
-2,819824
-4,733276
3,222656
-10,97717
-1,913452
-1,913452
2,5177
-3,927612
-0,9063721
-3,625488
-1,107788
0,9063721
-0,402832
-12,78992
2,719116
1,712036
-0,302124
6,445313
1,712036
3,222656
1,00708
-4,229736
-4,833984
0,7049561
-1,712036
-10,27222
5,337524
-1,812744
-1,51062
-1,712036
0,302124
0,100708
3,02124
2,719116
-0,302124
3,02124
1,309204
-8,660889
-7,553101
-2,719116
-7,955933
-2,618408
5,941772
-3,52478
-7,351685
-2,215576
-5,438232
-5,740356
-0,7049561
1,309204
7,150269
-4,53186
5,236816
-2,416992
2,819824
1,107788
-3,323364
-1,409912
2,416992
5,236816
2,316284
-6,344604
3,323364
-0,8056641
-7,754517
4,02832
-11,2793
4,934692
-0,100708
-1,51062
3,52478
-0,100708
4,53186
-8,560181
2,5177
-4,733276
-6,546021
5,53894
-3,121948
-4,129028
-6,344604
-8,660889
7,553101
-5,841064
-8,660889
-3,121948
-0,302124
-5,941772
-6,747437
-7,553101
-0,201416
-5,941772
-2,416992
3,424072
-4,53186
5,53894
-6,344604
12,78992
-0,9063721
5,841064
-0,402832
2,114868
0,100708
-1,51062
1,107788
-5,438232
-7,452393
-7,049561
-5,136108
-2,215576
-4,229736
1,107788
5,236816
-9,265137
8,560181
-9,063721
-17,32178
-10,27222
-11,17859
-2,618408
-7,049561
9,164429
-4,934692
7,351685
-4,02832
2,5177
-3,02124
2,316284
9,164429
8,358765
5,740356
3,02124
-1,913452
-5,941772
2,920532
-1,51062
-5,438232
-2,316284
1,208496
-0,604248
-10,67505
-3,222656
-0,9063721
3,52478
0,604248
-1,611328
-10,97717
-4,53186
-11,98425
-8,358765
-1,611328
0,50354
0,7049561
-3,52478
-5,639648
-4,53186
5,337524
3,52478
-11,68213
-2,416992
-0,100708
4,229736
-0,100708
-5,639648
-4,733276
-2,5177
5,337524
7,250977
-7,452393
-1,913452
-5,841064
-2,920532
-4,632568
-2,01416
6,948853
-3,424072
-0,302124
-0,604248
-2,5177
3,625488
1,00708
-12,18567
-2,719116
-2,215576
-12,08496
-6,04248
-3,826904
-5,53894
-0,100708
-1,409912
-10,37292
-3,52478
-0,201416
1,51062
6,243896
3,927612
3,222656
7,351685
-2,316284
8,660889
-0,100708
-1,913452
-6,646729
-6,747437
-7,855225
-8,358765
-2,215576
-6,646729
4,632568
-1,409912
1,913452
8,358765
-3,121948
12,78992
0,9063721
2,316284
10,67505
5,841064
-3,222656
-2,114868
0,302124
-1,812744
-2,316284
-2,114868
-3,927612
-1,309204
-4,129028
-7,250977
-6,747437
-14,40125
-6,948853
-0,7049561
-14,19983
1,309204
1,00708
0,8056641
-2,5177
0,8056641
-0,100708
-0,100708
1,712036
-1,107788
4,330444
2,215576
3,52478
-2,316284
6,143188
-4,129028
-2,316284
-6,948853
3,323364
-7,150269
-0,100708
-7,955933
-1,409912
6,143188
0,604248
5,53894
-0,8056641
-0,50354
-7,452393
0,201416
-4,934692
-0,9063721
-1,309204
-7,754517
-1,208496
0,50354
2,416992
-1,712036
3,52478
1,208496
-7,049561
-2,5177
-2,01416
-1,913452
-3,625488
2,920532
-0,100708
-2,316284
0,7049561
-7,754517
-2,618408
-5,841064
-5,841064
6,546021
-2,819824
-10,97717
-3,02124
3,222656
-2,920532
-9,265137
-6,344604
6,948853
-10,37292
-2,5177
-0,7049561
0,302124
-1,00708
-2,618408
1,309204
-1,913452
-3,323364
-4,833984
-4,53186
-1,913452
7,955933
-4,129028
4,02832
-0,100708
-4,330444
-0,402832
-1,107788
-4,330444
0,201416
3,222656
-4,129028
0,7049561
-5,0354
4,229736
0,50354
3,826904
-5,0354
5,841064
-5,136108
4,934692
-0,100708
0,8056641
7,653809
2,920532
-0,302124
-1,611328
3,726196
3,02124
-4,330444
-7,653809
-5,740356
-10,17151
-2,719116
-5,941772
-4,229736
-5,136108
-1,51062
-6,747437
-2,819824
-3,52478
-2,416992
-1,107788
3,625488
-7,855225
-5,53894
-2,01416
3,52478
1,00708
-14,80408
-3,121948
-2,5177
4,330444
-1,51062
-6,143188
4,129028
2,5177
-3,826904
10,0708
-2,920532
4,934692
3,424072
1,208496
-0,100708
1,00708
-0,8056641
-2,5177
-0,9063721
-4,632568
3,726196
-1,51062
-9,164429
-4,934692
3,52478
-5,136108
2,5177
-4,431152
-2,719116
-7,955933
-3,02124
-0,100708
-4,229736
-0,100708
-0,50354
0,8056641
-0,604248
-6,646729
4,129028
-9,063721
-14,30054
-6,445313
-11,2793
-9,265137
-7,150269
1,51062
0,100708
0,8056641
-0,7049561
1,107788
2,618408
1,51062
-3,625488
-9,970093
-3,826904
1,409912
0,201416
5,236816
5,639648
-4,833984
-4,229736
-11,17859
-2,114868
11,78284
-0,50354
10,97717
-16,11328
-1,51062
-18,02673
-23,16284
1,409912
-13,19275
-10,37292
5,941772
6,445313
-6,143188
-6,344604
-2,01416
0,201416
25,37842
-34,34143
24,57275
38,36975
-37,16125
4,431152
-4,330444
-3,927612
-6,344604
-9,667969
-1,913452
-4,934692
-1,208496
3,927612
5,639648
3,323364
1,409912
1,00708
9,869385
6,143188
-4,833984
2,416992
-14,90479
5,136108
-1,51062
1,00708
-26,28479
-3,826904
5,53894
-0,100708
-2,819824
1,309204
-6,344604
-1,00708
12,28638
13,69629
-1,51062
6,948853
21,24939
-2,316284
-1,208496
-0,100708
2,01416
1,208496
-14,70337
-3,927612
1,611328
-8,358765
-0,201416
-2,114868
1,107788
9,365845
4,02832
8,761597
-5,941772
-5,337524
3,424072
3,02124
-3,52478
-2,316284
-8,258057
0
-0,7049561
-0,9063721
7,452393
-2,5177
12,99133
6,445313
-0,50354
2,5177
0,50354
-8,862305
-8,963013
-6,747437
-4,733276
-2,114868
-3,121948
-3,927612
0,7049561
-7,754517
-2,920532
-3,826904
-7,754517
-1,107788
-1,409912
-4,330444
-9,567261
-1,812744
4,632568
-8,862305
-19,43665
9,667969
-7,955933
-16,41541
12,48779
-7,653809
-4,53186
4,330444
2,215576
-10,47363
-2,215576
1,309204
-8,761597
9,365845
6,848145
18,63098
-2,01416
-0,9063721
-8,761597
-6,546021
-0,100708
-1,107788
-9,466553
7,150269
-4,330444
-0,604248
-12,99133
-0,604248
2,114868
-2,01416
-6,646729
-4,431152
-5,639648
-10,77576
-0,100708
-0,7049561
-2,5177
-3,826904
0,302124
-7,553101
0,50354
-2,316284
-9,063721
2,719116
-0,100708
5,639648
-3,726196
-0,100708
-3,121948
-2,719116
1,913452
-3,927612
-4,129028
-1,51062
0,604248
0,9063721
-5,136108
-4,833984
-5,841064
-0,8056641
-7,351685
6,445313
-3,52478
-0,604248
-3,726196
-0,7049561
-7,351685
-5,438232
0,7049561
-10,47363
7,452393
2,114868
2,819824
-4,129028
-3,222656
2,920532
2,316284
-1,107788
7,452393
7,653809
2,719116
-10,77576
6,445313
1,712036
5,136108
-4,02832
0,100708
-0,201416
-5,236816
10,37292
9,970093
-9,466553
1,913452
-1,913452
-1,409912
4,934692
-2,719116
-0,9063721
-2,618408
-6,848145
3,02124
6,344604
1,107788
-0,100708
5,740356
-1,00708
-0,302124
3,726196
-7,250977
-10,27222
-6,948853
-7,150269
-5,136108
2,215576
1,107788
-9,567261
5,337524
-1,812744
-18,63098
-2,719116
-0,100708
-16,01257
-26,48621
-3,625488
9,869385
13,39417
-18,22815
-5,841064
-25,47913
-26,48621
-8,056641
-73,91968
21,55151
-38,974
-25,98267
-17,01965
10,97717
-48,03772
-10,77576
2,316284
-6,243896
3,927612
8,761597
-0,604248
-2,5177
-21,14868
2,114868
-3,121948
-27,89612
26,08337
25,37842
-12,78992
0,100708
-9,466553
-5,337524
-0,100708
-61,33118
216,925
33,13293
-0,9063721
-14,80408
-11,98425
-25,47913
-23,46497
-20,04089
-12,38708
-0,302124
-2,719116
5,337524
14,90479
37,96692
43,60657
48,54126
51,05896
36,15417
28,70178
10,77576
-4,53186
-6,04248
-11,17859
-2,114868
-1,51062
2,618408
11,17859
1,51062
10,87646
1,611328
3,222656
-5,136108
-3,424072
4,53186
-6,143188
-4,129028
-1,107788
-13,99841
-2,416992
-0,402832
1,712036
-3,52478
-1,409912
4,53186
7,855225
3,52478
-1,107788
-3,121948
-3,121948
-0,302124
-7,150269
-5,740356
4,02832
-2,920532
-10,77576
-3,02124
-12,38708
1,712036
-7,452393
-3,424072
3,726196
-6,948853
-10,57434
-1,611328
-5,941772
0,9063721
2,416992
0,302124
-0,100708
-1,51062
-3,726196
-1,913452
-0,50354
-5,841064
0,50354
-1,51062
-5,438232
0,8056641
-4,330444
3,222656
-11,07788
-5,136108
1,309204
3,826904
-5,53894
-4,833984
-1,409912
-0,201416
-1,712036
3,424072
-0,50354
1,812744
-0,7049561
-5,740356
-3,927612
-3,222656
-4,129028
-7,351685
-7,855225
-4,53186
-5,941772
-5,841064
-0,100708
-7,452393
-3,726196
-2,5177
-2,920532
0,201416
-2,5177
-1,00708
-3,52478
4,632568
5,53894
-3,826904
0,7049561
4,53186
5,0354
5,236816
-2,618408
3,726196
-2,316284
1,409912
0,8056641
-4,129028
-0,100708
0,7049561
-1,913452
-3,726196
-2,215576
2,920532
-7,754517
-11,68213
7,351685
1,409912
-2,114868
-2,316284
-4,833984
-5,53894
-0,302124
-10,37292
-5,941772
-4,733276
-4,229736
2,819824
3,121948
1,913452
0,9063721
5,740356
0,201416
-6,344604
2,920532
-1,208496
-5,639648
-1,107788
-0,100708
-5,740356
1,812744
6,143188
-4,129028
-7,452393
-1,107788
-5,337524
-3,121948
-1,107788
-1,309204
-4,129028
2,316284
-0,7049561
-3,121948
-4,330444
-3,625488
-4,330444
-2,114868
-0,100708
-3,726196
0,201416
0,302124
-1,309204
-2,618408
2,316284
6,344604
-0,100708
-4,934692
-12,89063
-1,409912
-1,107788
-0,302124
-2,215576
-6,344604
3,121948
2,920532
1,00708
-1,309204
-0,100708
6,344604
-6,143188
-0,50354
2,114868
-5,0354
-9,567261
-5,740356
-3,222656
-3,52478
2,316284
-0,9063721
-4,229736
-5,740356
0,302124
0
-1,00708
3,02124
-1,00708
-0,604248
2,215576
-2,5177
0,604248
-4,02832
9,265137
0,100708
-4,129028
0,402832
5,841064
-3,424072
-2,920532
-1,913452
-9,164429
-5,337524
-0,201416
2,618408
-2,114868
1,107788
-3,424072
6,143188
-6,143188
-2,5177
3,927612
0,201416
3,726196
-6,344604
-1,51062
-2,618408
-5,841064
-1,51062
-5,841064
2,920532
-2,819824
2,920532
-3,927612
0,302124
-3,121948
2,920532
-2,215576
-0,302124
-2,114868
-0,402832
-3,52478
5,337524
0,7049561
-1,611328
-10,37292
-3,02124
-6,546021
-4,833984
-1,913452
-6,143188
-7,553101
2,920532
6,344604
1,712036
-0,9063721
-4,330444
-6,546021
-9,164429
0,302124
3,424072
3,826904
-8,560181
-0,7049561
-10,0708
-0,302124
-2,114868
7,754517
-0,9063721
-2,719116
1,107788
7,351685
-2,114868
-4,431152
2,719116
2,114868
7,250977
-0,100708
-2,819824
-3,121948
-3,424072
-5,0354
3,826904
-4,733276
0,7049561
4,229736
1,51062
1,409912
-1,812744
-6,143188
11,38
0,50354
-1,812744
0,100708
-0,9063721
-1,107788
-1,409912
-6,344604
-7,553101
-1,208496
5,941772
1,812744
-1,00708
-0,100708
-1,107788
-0,100708
-2,114868
2,920532
0,201416
-6,243896
0,302124
-6,143188
-6,344604
-6,344604
-7,452393
0,7049561
2,316284
3,02124
-0,8056641
-4,733276
-5,941772
-0,100708
-3,323364
-6,143188
9,164429
-2,316284
-0,8056641
1,309204
0,50354
0,302124
-0,9063721
-3,121948
6,546021
0,7049561
1,107788
3,625488
-4,934692
-11,17859
-2,114868
-1,00708
-0,100708
1,913452
-2,618408
1,812744
1,309204
-5,136108
-4,833984
-5,53894
2,920532
1,913452
0,7049561
6,344604
0,7049561
-7,855225
-6,747437
-5,0354
-9,063721
2,920532
-5,53894
3,424072
-2,114868
2,819824
-2,114868
0,402832
0,604248
-4,733276
-4,330444
3,222656
-3,424072
1,712036
-2,316284
-0,402832
2,316284
-8,358765
-0,50354
0,7049561
-1,409912
-5,740356
0
3,726196
-4,02832
-1,107788
-3,121948
-0,8056641
-2,316284
-0,50354
-4,229736
3,222656
-1,712036
-0,7049561
5,0354
-1,309204
2,416992
-3,02124
0,201416
2,618408
-6,143188
0,402832
1,208496
-0,50354
-4,129028
-3,121948
-6,948853
5,53894
-1,309204
0,50354
-8,963013
3,52478
2,920532
0,7049561
3,726196
-1,208496
0,7049561
-0,402832
-0,100708
-1,913452
0,8056641
-1,208496
1,812744
-5,941772
1,913452
0,100708
1,409912
-1,107788
0,604248
1,208496
-0,50354
-4,431152
1,309204
-2,416992
1,812744
-1,208496
2,719116
-2,114868
0,302124
-0,201416
-1,309204
-4,129028
-8,761597
0,100708
3,52478
-2,215576
-5,0354
5,0354
-1,107788
-3,02124
-2,5177
1,208496
-9,466553
2,114868
1,107788
-4,53186
0,100708
2,316284
2,920532
-3,826904
-2,215576
-0,201416
-3,121948
1,107788
-2,5177
5,0354
-0,100708
1,309204
-4,129028
-0,100708
2,618408
2,316284
-1,00708
-3,121948
4,934692
5,941772
-1,309204
-1,00708
-2,719116
0,7049561
-2,316284
-7,855225
4,53186
-1,913452
-0,402832
-1,309204
-3,726196
-6,344604
0
1,107788
-5,941772
0,8056641
-0,302124
6,243896
-3,424072
-1,208496
-7,553101
0,50354
-0,9063721
4,330444
-5,136108
1,409912
-2,316284
-2,01416
1,208496
-4,733276
-1,51062
-5,53894
3,927612
-2,920532
-3,726196
-4,02832
2,5177
-2,719116
-2,316284
-5,236816
2,618408
-1,409912
1,712036
-0,100708
-1,712036
1,611328
-1,00708
-8,963013
-6,948853
0,100708
-2,5177
0,9063721
-1,107788
-1,51062
-4,53186
-0,9063721
-2,819824
-3,323364
0,604248
-4,833984
-5,136108
-4,53186
-5,740356
-3,121948
-0,201416
-4,833984
-1,00708
-0,201416
-0,7049561
-1,913452
-4,330444
-9,063721
-4,129028
-1,712036
1,309204
0,9063721
-0,100708
6,747437
-2,819824
-2,5177
-8,963013
-8,157349
-3,222656
-5,53894
2,920532
-3,625488
-1,712036
0,302124
-0,100708
-4,632568
-4,934692
1,409912
1,712036
0,9063721
-1,107788
-1,611328
-4,129028
-3,826904
-3,826904
0,7049561
2,114868
-0,100708
1,107788
-0,100708
4,02832
0,7049561
-4,229736
-0,100708
-8,660889
0,50354
7,049561
-3,323364
1,309204
-3,02124
-1,107788
-5,136108
-2,114868
1,712036
-1,51062
-0,100708
-8,358765
-3,726196
-1,611328
-14,30054
7,754517
-5,337524
-6,747437
-1,712036
3,323364
2,920532
-10,0708
-1,309204
-7,250977
-3,52478
-1,913452
-1,913452
5,136108
2,920532
1,913452
-0,100708
-2,316284
5,53894
-2,316284
2,920532
1,913452
-4,129028
5,337524
-7,049561
-3,222656
-2,819824
-0,7049561
-8,459473
-8,157349
-6,646729
-4,330444
-4,02832
-5,0354
-4,53186
-3,927612
-9,265137
-22,96143
-8,660889
6,243896
-7,955933
-12,38708
11,58142
29,70886
-2,5177
-24,97559
-52,06604
2,618408
-15,60974
107,8583
-0,100708
-38,47046
-32,93152
-32,7301
-15,60974
123,7701
-90,13367
21,65222
-2,5177
-23,16284
-24,37134
-10,37292
-1,913452
1,107788
-21,04797
-25,37842
-19,94019
-24,06921
-24,47205
-42,7002
-23,16284
-23,06213
-23,76709
-10,97717
-11,98425
-12,38708
-36,15417
-21,55151
-28,70178
-35,95276
-31,21948
-26,3855
-45,41931
5,136108
-53,17383
19,63806
45,2179
21,3501
13,39417
62,43896
15,50903
25,57983
7,452393
39,88037
33,33435
29,00391
17,22107
9,970093
-7,653809
30,81665
39,98108
32,22656
13,29346
32,62939
123,3673
34,14001
33,53577
5,0354
31,82373
21,85364
39,07471
25,47913
16,61682
3,726196
26,88904
24,27063
9,869385
1,309204
-0,50354
-5,639648
-19,13452
-65,46021
-50,05188
-63,84888
-69,28711
-50,15259
-76,23596
-66,36658
-67,07153
-62,23755
-39,07471
-17,92603
-44,91577
-1,00708
-28,80249
-14,40125
-9,970093
4,330444
-16,61682
23,46497
8,056641
11,07788
-3,52478
0,402832
-21,95435
-28,70178
-35,34851
-23,76709
-11,38
4,733276
19,03381
27,89612
17,72461
9,466553
-3,02124
-7,754517
-11,48071
-10,57434
-5,337524
-2,215576
15,40833
17,22107
15,00549
6,747437
15,20691
4,330444
4,330444
-6,747437
-5,740356
-14,80408
-21,3501
-23,26355
-20,24231
-14,30054
-5,438232
8,660889
-8,660889
3,927612
-10,67505
-11,17859
1,00708
2,114868
16,71753
-8,963013
-5,53894
-7,150269
-4,431152
-1,107788
-2,618408
0,402832
-0,9063721
-1,913452
1,712036
4,934692
-0,100708
7,754517
2,920532
4,53186
5,740356
-0,9063721
8,862305
4,02832
3,323364
9,164429
10,47363
11,38
8,560181
-0,100708
7,150269
-9,567261
-6,747437
-6,646729
-8,963013
-10,67505
-3,625488
-13,59558
-0,402832
12,68921
-1,107788
4,733276
6,143188
5,841064
-0,100708
16,81824
26,78833
-50,2533
-75,4303
-9,667969
-3,121948
2,920532
0,402832
6,546021
8,056641
-1,00708
4,934692
6,143188
-15,81116
11,07788
-46,32568
-54,0802
-11,48071
6,747437
-43,00232
3,52478
-7,553101
51,76392
-6,344604
-14,19983
-2,316284
-30,51453
-0,7049561
22,6593
15,81116
23,36426
4,229736
-9,365845
2,920532
27,79541
27,09045
-7,955933
13,99841
7,250977
12,08496
5,740356
12,28638
-21,45081
18,42957
-7,452393
7,250977
7,855225
2,114868
16,3147
-31,82373
41,79382
1,812744
-8,963013
-2,416992
-61,73401
15,81116
-3,222656
-77,74658
-45,11719
-4,129028
8,459473
-12,18567
4,02832
-9,365845
30,01099
-8,963013
-1,107788
5,941772
-2,719116
8,761597
3,927612
1,208496
3,02124
2,316284
7,049561
6,04248
17,52319
3,323364
4,431152
1,309204
21,04797
10,67505
-6,344604
-2,114868
-1,107788
43,80798
-19,63806
2,316284
-38,16833
5,740356
12,08496
2,719116
-2,719116
34,34143
95,87402
-74,42322
-53,47595
-46,12427
-17,12036
-5,740356
-32,32727
51,96533
6,04248
-10,67505
2,114868
44,81506
12,68921
-19,73877
5,941772
-18,93311
11,38
-5,639648
44,51294
37,46338
-5,841064
17,12036
-7,150269
2,114868
-9,466553
34,03931
-11,07788
8,056641
-62,13684
15,71045
-120,6482
-30,71594
-62,33826
-67,47437
-24,16992
-10,77576
30,11169
0,50354
-22,45789
-19,53735
-11,78284
24,87488
-24,06921
-80,76782
51,46179
-2,316284
-38,16833
-22,35718
-30,41382
-38,47046
-20,94727
-15,40833
-1,611328
17,32178
24,67346
36,35559
35,54993
42,7002
50,15259
61,43188
52,8717
46,02356
28,09753
13,99841
5,438232
-0,302124
3,726196
-3,424072
5,53894
0,50354
-2,819824
4,934692
-3,121948
2,114868
2,819824
-7,553101
-4,53186
-3,927612
-7,351685
3,424072
0,201416
-0,100708
3,222656
6,243896
-0,7049561
-1,107788
0,604248
2,114868
2,618408
-0,302124
-1,309204
-0,302124
3,927612
-0,100708
9,063721
-2,719116
-3,826904
-5,136108
-4,733276
-4,129028
-1,00708
0
-0,50354
-5,740356
-1,913452
-4,129028
-5,136108
2,416992
-14,09912
0,50354
10,77576
-3,52478
-0,100708
1,00708
1,712036
-1,51062
-1,00708
2,316284
0,50354
-4,229736
10,67505
-10,57434
-0,100708
-10,0708
-1,611328
-19,13452
3,222656
-17,6239
-2,719116
-9,365845
-11,68213
-7,250977
-4,129028
11,07788
-0,100708
-3,625488
-8,660889
-6,445313
-4,330444
-2,5177
2,114868
-7,754517
5,53894
-11,17859
-3,726196
-3,52478
-12,78992
4,02832
-6,646729
-1,913452
-2,719116
-3,52478
-3,826904
-4,733276
-0,8056641
-0,604248
-3,222656
-3,02124
2,5177
-7,553101
6,948853
-2,316284
0,201416
7,452393
-13,49487
-4,129028
-0,100708
4,02832
-4,632568
-3,222656
-4,229736
-1,107788
3,726196
-2,316284
-7,855225
-3,927612
-2,215576
-1,309204
1,107788
-4,129028
-11,58142
0,302124
-4,431152
-5,136108
-5,841064
-5,0354
-7,452393
-4,330444
-0,50354
0,302124
-2,5177
-8,761597
-0,7049561
-5,941772
7,250977
-2,416992
0,7049561
0,8056641
1,812744
-1,913452
1,51062
-2,920532
-4,330444
-2,114868
-4,229736
-13,49487
-3,52478
-0,9063721
-1,712036
-2,719116
-0,9063721
1,51062
-7,250977
5,236816
-2,5177
-9,063721
7,049561
-9,063721
5,438232
2,416992
-7,150269
-9,667969
-7,955933
11,07788
-4,330444
1,812744
-9,265137
-0,50354
-3,726196
7,855225
-2,114868
-11,88354
5,236816
1,309204
-1,309204
-6,747437
10,17151
-11,2793
-1,611328
-5,438232
-4,330444
-2,01416
0,201416
-6,445313
4,53186
-8,459473
-2,5177
5,53894
-5,337524
-0,9063721
4,129028
-3,424072
-9,265137
1,208496
-5,236816
-6,344604
2,5177
-1,208496
2,719116
-5,438232
2,920532
4,733276
0,302124
-2,5177
-10,37292
0,302124
5,740356
0,402832
-1,208496
-4,632568
-8,963013
-12,38708
-0,7049561
-6,04248
0,604248
12,99133
2,215576
-4,733276
-5,841064
3,323364
-2,416992
8,660889
8,157349
0,50354
-0,100708
-4,129028
-5,841064
-4,129028
5,53894
-0,100708
0,7049561
5,136108
0,201416
-4,53186
-9,164429
-3,52478
-2,819824
-14,30054
-2,215576
0,7049561
-0,100708
8,963013
-0,100708
-1,51062
-1,107788
3,625488
-3,826904
6,546021
1,913452
2,01416
2,719116
-0,100708
-0,100708
-4,632568
1,107788
-1,208496
-0,100708
-0,100708
-5,236816
-8,258057
11,58142
-5,337524
-1,107788
-0,201416
-1,712036
-10,87646
1,107788
-12,38708
6,04248
-10,37292
0,100708
2,316284
2,719116
-7,653809
8,560181
-5,53894
-0,100708
-5,236816
6,747437
-8,358765
-0,100708
-13,29346
-5,53894
0,604248
-7,452393
0,100708
2,5177
4,330444
-6,546021
-6,546021
-1,00708
-2,819824
-9,365845
-0,402832
-1,812744
-3,927612
1,812744
-4,129028
-7,754517
5,740356
-8,358765
0,402832
-9,970093
-12,5885
2,114868
5,236816
-10,37292
-5,438232
-1,913452
-2,618408
-13,99841
-11,78284
-6,143188
-2,819824
-7,553101
0,604248
0,8056641
-4,129028
9,365845
10,37292
4,632568
-16,01257
-8,157349
-14,40125
5,236816
-11,58142
7,855225
-1,107788
-5,740356
31,82373
-32,83081
24,77417
-28,39966
25,27771
120,8496
15,40833
16,81824
-37,7655
39,07471
29,60815
-8,963013
44,51294
-17,6239
24,16992
22,55859
-11,88354
-30,2124
14,90479
22,55859
-44,41223
22,25647
59,1156
-73,31543
57,10144
-36,35559
-51,26038
-54,98657
36,25488
136,1572
-67,17224
37,46338
30,01099
-63,24463
46,02356
-83,08411
103,125
-70,89844
51,66321
-22,15576
-5,841064
-5,639648
-14,70337
-11,17859
-35,34851
44,71436
14,90479
-4,53186
-22,55859
33,33435
-3,222656
-2,114868
31,72302
-18,02673
-0,7049561
-87,91809
-29,30603
-1,00708
-60,72693
17,42249
36,15417
3,625488
-9,567261
15,50903
35,14709
16,91895
23,8678
-33,63647
-3,625488
13,39417
53,57666
44,51294
-20,04089
-59,82056
16,01257
-59,92126
12,89063
15,71045
54,48303
10,37292
45,82214
47,63489
17,01965
-30,81665
-1,309204
49,24622
-45,01648
26,48621
-81,17065
44,0094
-28,19824
-13,69629
-40,08179
74,82605
-25,177
51,46179
6,445313
-17,52319
35,65063
-2,618408
-37,56409
5,53894
23,96851
-98,0896
27,89612
33,13293
44,91577
85,70251
-28,09753
10,97717
-7,855225
-12,38708
8,862305
8,761597
26,3855
33,23364
-5,941772
28,70178
29,50745
2,920532
-9,365845
-5,941772
14,70337
-14,80408
-15,1062
-55,69153
-37,16125
22,55859
-4,632568
2,920532
30,11169
60,12268
-26,48621
-1,309204
-0,100708
65,76233
-16,11328
-26,58691
24,27063
4,53186
-14,40125
-18,32886
-60,82764
-27,79541
18,8324
28,29895
-10,87646
13,19275
-3,323364
-69,68994
-68,17932
20,04089
-4,431152
-51,36108
-9,164429
-4,229736
47,53418
37,16125
-26,08337
23,26355
-27,49329
-9,365845
-15,1062
-22,25647
-38,16833
-21,95435
24,57275
-19,33594
6,04248
3,323364
-33,03223
-44,21082
-11,98425
55,99365
-7,553101
-34,44214
-14,90479
-2,819824
10,97717
41,59241
-87,51526
0,100708
23,56567
30,61523
-16,11328
-8,660889
20,94727
24,47205
82,17773
-9,768677
9,265137
48,94409
-42,39807
35,54993
-15,60974
-25,37842
-12,89063
1,913452
54,88586
38,87329
31,52161
6,747437
-18,53027
-8,862305
-30,01099
-18,93311
3,927612
-1,208496
52,16675
-13,19275
-33,83789
-110,7788
11,78284
-25,27771
-2,819824
4,229736
29,20532
30,41382
-37,36267
-45,11719
25,27771
-0,50354
42,39807
-27,09045
-7,653809
-40,2832
-9,466553
102,8229
5,941772
-30,51453
-23,16284
60,3241
-28,09753
35,34851
7,955933
48,84338
24,47205
33,03223
-13,89771
-47,03064
55,2887
56,49719
13,797
8,660889
-33,83789
29,10461
61,12976
-99,3988
3,323364
32,22656
30,61523
-72,40906
-96,07544
-46,42639
65,15808
-38,16833
-56,09436
-32,83081
37,96692
-14,40125
-63,54675
16,11328
11,98425
38,67188
-69,58923
-150,5585
34,74426
32,7301
-20,64514
-50,2533
6,243896
16,81824
-18,02673
27,79541
43,00232
20,54443
-67,27295
-124,3744
-15,91187
-107,4554
83,78906
-74,32251
41,69312
-14,80408
47,53418
-75,02747
-9,768677
-7,553101
51,36108
29,50745
0,8056641
-58,51135
-27,29187
-4,833984
-3,02124
36,65771
-97,98889
109,0668
-157,1045
-37,66479
-39,27612
36,95984
-21,14868
-4,330444
-88,82446
-105,3406
12,38708
-79,45862
-51,66321
-15,40833
10,0708
50,55542
-20,94727
-9,063721
-23,36426
-35,95276
-1,913452
-81,37207
48,84338
257,2083
-86,50818
-167,276
42,19666
11,88354
38,974
-29,60815
75,93384
95,47119
-61,73401
-67,57507
-7,553101
14,70337
55,2887
74,2218
-100,8087
-1,208496
26,28479
-17,01965
6,143188
50,45471
26,78833
-2,920532
-67,8772
3,927612
100,2045
107,5562
-11,98425
-51,86462
-40,68604
63,54675
-26,98975
-30,61523
11,58142
64,45313
-7,351685
100,6073
5,941772
63,84888
77,948
0,50354
-0,9063721
-4,53186
-50,65613
5,53894
-144,4153
-46,02356
-35,85205
-84,89685
-0,100708
64,95667
-78,75366
72,61047
-9,466553
70,19348
-118,9362
47,43347
-18,12744
37,36267
59,01489
100,9094
-37,66479
-32,12585
50,95825
-53,47595
-158,8165
-20,74585
43,70728
-48,03772
15,00549
-27,99683
21,45081
-18,22815
-118,2312
-32,32727
-55,2887
38,26904
-42,90161
-9,567261
-25,177
-43,90869
12,5885
-91,14075
44,21082
-19,63806
15,40833
-42,39807
32,93152
-67,57507
-74,02039
101,2115
-58,91418
-42,90161
23,16284
-62,8418
39,77966
-125,9857
35,34851
47,43347
121,3531
-31,92444
134,7473
-65,66162
-41,29028
36,15417
12,28638
-23,46497
70,3949
-139,0778
16,51611
21,04797
145,0195
-11,2793
37,86621
-136,2579
-4,53186
23,56567
102,42
72,00623
-11,58142
-28,50037
-1,107788
-31,4209
79,66003
-27,6947
-23,96851
56,69861
-25,07629
36,95984
54,78516
-8,560181
101,3123
-42,39807
31,11877
-3,927612
-33,53577
-14,19983
57,40356
10,77576
24,67346
26,98975
60,3241
16,41541
-1,913452
31,01807
-32,02515
4,330444
-17,12036
55,89294
-8,056641
139,7827
37,56409
-35,75134
4,934692
42,09595
9,869385
81,37207
7,351685
-31,11877
-19,23523
53,67737
-33,63647
-7,855225
24,16992
-7,955933
-152,3712
-12,08496
53,87878
-55,08728
10,47363
25,27771
30,01099
-34,94568
29,70886
-159,8236
-82,68127
11,2793
-6,948853
22,86072
-57,9071
-78,25012
-44,31152
34,34143
-2,819824
-8,963013
22,76001
-150,8606
3,726196
-150,9613
-52,26746
-10,67505
-7,452393
21,65222
15,50903
-76,94092
13,59558
-54,58374
-87,81738
-36,15417
-22,05505
55,49011
26,88904
83,18481
-9,970093
-51,05896
-31,32019
13,69629
103,0243
15,60974
-30,2124
-86,30676
-10,57434
205,4443
54,28162
-86,00464
10,0708
-47,8363
-58,00781
131,5247
30,91736
9,164429
-16,3147
-40,1825
-5,53894
-6,243896
-6,747437
-44,31152
1,309204
-52,67029
40,78674
75,83313
-14,70337
25,07629
24,67346
132,8339
-51,66321
-18,22815
-34,74426
-84,39331
15,81116
13,29346
8,056641
52,36816
7,653809
-93,15491
-4,330444
30,61523
67,07153
-35,85205
-0,100708
-13,797
-7,553101
-13,29346
20,94727
-11,48071
13,09204
-15,20691
16,81824
10,57434
-6,04248
-6,948853
34,84497
5,841064
-39,57825
4,129028
18,8324
2,215576
13,09204
-11,07788
1,107788
-13,09204
7,653809
8,761597
-25,37842
8,862305
-10,97717
-3,826904
8,862305
-3,625488
-6,546021
10,97717
-6,646729
-5,639648
-4,330444
-7,754517
-4,129028
-5,941772
32,93152
3,52478
4,129028
-0,9063721
2,5177
-4,129028
-5,639648
-15,60974
-8,862305
-11,68213
-7,855225
-9,365845
2,920532
-0,302124
-1,309204
-2,618408
-15,60974
-5,740356
-3,52478
15,00549
6,445313
6,546021
-5,236816
24,67346
1,611328
-5,639648
-12,5885
0,7049561
-2,5177
1,812744
-4,632568
0,50354
-12,18567
8,862305
-8,963013
-6,243896
-3,222656
0,50354
-8,459473
-0,9063721
24,27063
-8,761597
2,114868
7,150269
-5,438232
4,934692
-2,920532
-1,913452
-4,53186
-1,51062
13,59558
-5,337524
7,754517
0,402832
-1,611328
5,941772
-2,719116
20,74585
-11,78284
-1,712036
-24,47205
-8,560181
-2,316284
-3,726196
-1,409912
17,42249
-29,70886
-2,618408
6,445313
-4,229736
-0,9063721
2,01416
2,920532
-0,50354
-1,712036
0,7049561
-24,67346
-16,71753
-0,9063721
5,639648
0,50354
-6,445313
-4,632568
-0,9063721
4,833984
-0,9063721
0,302124
-3,927612
-5,136108
10,17151
-9,466553
-3,726196
-0,100708
12,08496
-4,53186
-25,68054
-3,52478
3,424072
-10,77576
-2,114868
17,32178
18,22815
-8,560181
-8,358765
-0,50354
-4,330444
0,7049561
-4,02832
-4,833984
1,00708
-3,625488
-2,5177
-2,719116
2,618408
-10,57434
-0,50354
10,37292
-1,913452
5,337524
-0,302124
7,250977
4,02832
-0,7049561
3,927612
-20,84656
-8,660889
3,927612
-0,302124
-0,9063721
-2,114868
-4,330444
2,416992
-0,8056641
-2,719116
-3,625488
-6,948853
-11,17859
-0,100708
-5,236816
2,215576
-3,826904
-1,107788
0
-5,0354
-0,8056641
-7,049561
-3,52478
-2,114868
-5,136108
-4,229736
-3,02124
-1,51062
-3,726196
-5,740356
-16,41541
-1,812744
6,143188
2,5177
-8,560181
1,611328
3,424072
2,316284
-7,653809
-6,243896
1,409912
-5,136108
-3,726196
-8,056641
-8,459473
-7,049561
-6,04248
-10,97717
-6,243896
-2,5177
-6,143188
-5,740356
-2,416992
5,740356
-2,920532
-14,30054
0,8056641
-2,01416
-1,712036
-1,712036
-2,316284
-0,100708
7,250977
-0,7049561
5,740356
-1,409912
-0,100708
-2,719116
0,50354
-10,47363
1,712036
-2,114868
4,934692
-8,761597
-0,604248
4,129028
3,323364
7,855225
-11,2793
-6,546021
2,920532
-5,438232
-2,5177
-7,955933
-9,970093
-2,416992
-3,121948
1,309204
-5,841064
-8,660889
-0,7049561
-11,58142
-9,667969
-3,625488
2,5177
-3,323364
-9,265137
7,754517
1,309204
1,611328
0,9063721
-2,719116
-1,409912
-1,208496
-3,625488
-7,049561
-1,208496
-3,02124
3,222656
3,625488
-8,358765
-0,7049561
-2,215576
8,560181
-0,100708
1,812744
-3,625488
9,667969
-4,330444
-0,100708
8,056641
-3,52478
2,316284
-1,913452
1,712036
-1,611328
3,726196
-2,5177
-0,9063721
-2,618408
-0,100708
-4,934692
-7,955933
-1,913452
4,02832
-2,819824
1,913452
-4,02832
3,726196
6,646729
4,02832
7,452393
0,201416
-2,316284
-0,100708
-8,358765
-5,337524
0
-10,87646
-2,5177
-0,50354
4,934692
1,913452
-2,114868
-0,7049561
-6,243896
-2,416992
-1,611328
-3,726196
-2,719116
-8,358765
-0,9063721
0,302124
4,733276
7,351685
-2,920532
-2,719116
-1,309204
0,9063721
-0,402832
0,50354
-15,81116
0,402832
-0,302124
1,00708
1,712036
4,53186
-7,150269
0,8056641
1,107788
-0,302124
-0,201416
2,215576
3,424072
-2,819824
0,50354
-3,726196
-2,5177
-2,416992
4,229736
10,97717
-8,560181
-0,50354
-5,941772
-4,129028
-0,302124
-17,01965
2,416992
3,222656
-7,150269
-3,726196
2,215576
5,136108
-8,358765
5,53894
-2,719116
0,7049561
-6,344604
-1,00708
-5,438232
12,68921
-6,143188
-7,855225
-7,955933
-6,143188
2,01416
-7,855225
0,9063721
-0,7049561
-4,330444
0,402832
6,04248
-11,68213
-1,913452
-7,452393
8,761597
-3,625488
-2,416992
0,604248
-6,646729
-2,01416
6,848145
-1,00708
-2,819824
12,18567
-9,768677
4,229736
3,323364
-2,316284
6,646729
1,208496
-1,409912
-8,157349
-0,100708
-2,719116
-0,201416
3,222656
4,934692
3,52478
3,826904
-1,409912
2,114868
-4,330444
-2,416992
-15,00549
-11,38
-5,941772
-3,323364
-8,963013
-8,358765
3,52478
-5,941772
-6,948853
-2,114868
0,50354
10,57434
-6,646729
-2,819824
-14,80408
10,27222
-10,27222
-13,09204
4,330444
-8,660889
1,712036
-6,143188
-6,143188
-10,27222
-2,416992
-1,208496
-12,68921
-5,0354
5,337524
0,402832
0,7049561
-4,330444
4,833984
0,604248
-11,78284
-1,913452
-6,747437
12,5885
3,222656
2,5177
-5,438232
0,100708
5,53894
0,50354
-0,50354
-7,351685
-9,466553
2,618408
-4,431152
1,812744
-5,841064
0,402832
-0,302124
0,604248
7,452393
-12,28638
12,28638
3,726196
2,920532
3,02124
2,719116
8,056641
1,309204
1,913452
-7,150269
-3,726196
8,963013
-9,466553
-10,67505
-2,114868
-15,20691
5,337524
4,02832
-4,330444
4,833984
-0,201416
3,927612
-20,04089
-5,53894
-6,646729
-3,323364
-5,136108
0,7049561
-6,243896
3,726196
0,7049561
-0,8056641
-1,812744
-5,740356
-3,121948
1,51062
9,063721
-10,67505
-3,826904
6,848145
7,049561
-8,157349
-0,402832
4,02832
1,51062
-1,309204
-5,136108
-6,344604
0,7049561
9,768677
-7,855225
-1,913452
-3,625488
-4,733276
-5,438232
-0,100708
-6,546021
-6,948853
-1,208496
-3,826904
-0,302124
-4,129028
-2,114868
3,826904
-2,416992
-2,416992
5,639648
1,00708
-1,409912
-4,02832
7,553101
-0,100708
-4,833984
3,52478
-4,53186
9,063721
6,243896
-8,258057
-2,719116
-0,7049561
-0,50354
-5,337524
10,0708
-3,02124
8,761597
1,611328
-2,316284
3,726196
-0,50354
1,00708
2,920532
5,53894
-4,934692
1,00708
0,402832
4,330444
-2,819824
-2,819824
3,222656
-5,136108
-2,920532
-2,819824
-1,611328
-0,604248
-4,833984
-1,51062
-4,934692
6,04248
2,01416
-1,51062
-1,00708
5,53894
-4,431152
16,81824
-0,604248
0,7049561
-8,258057
4,129028
-6,445313
-1,409912
11,78284
-6,344604
4,733276
-0,9063721
-1,712036
-3,222656
0,100708
-5,53894
-1,309204
-4,330444
-0,100708
2,719116
-3,52478
-9,567261
0,8056641
-4,632568
-4,02832
-3,121948
-0,100708
5,53894
-9,567261
-0,100708
4,833984
-0,100708
-2,01416
-4,733276
-0,100708
-0,302124
-5,740356
-1,712036
-3,323364
-3,927612
-11,58142
-6,143188
-0,50354
0,201416
8,258057
-3,927612
-10,77576
-5,53894
-3,826904
2,416992
-3,52478
4,02832
-2,114868
-0,100708
0,50354
-1,611328
5,740356
-5,639648
0,100708
-14,80408
5,740356
-5,941772
2,316284
9,365845
9,768677
1,812744
-13,19275
8,963013
0,7049561
-0,7049561
8,157349
-1,309204
1,409912
-0,100708
3,323364
1,107788
-12,38708
3,222656
-2,114868
0,7049561
-5,740356
-3,726196
2,5177
-8,258057
-6,747437
7,150269
-2,114868
-2,819824
-0,9063721
0,8056641
11,68213
3,121948
-3,52478
-0,100708
2,719116
-2,114868
6,848145
4,229736
-0,100708
-14,50195
5,639648
-3,927612
0,302124
-2,316284
-9,768677
-5,0354
0,302124
-0,8056641
1,812744
-0,100708
-14,80408
-9,164429
2,215576
3,927612
4,632568
3,726196
-0,100708
-6,143188
9,164429
4,53186
8,358765
4,330444
-6,04248
-0,604248
-4,02832
-6,243896
1,712036
-2,316284
0,402832
1,812744
-6,344604
-4,129028
-7,553101
10,17151
3,625488
1,309204
-10,57434
-0,7049561
5,639648
1,611328
0,50354
-6,948853
5,53894
-3,826904
4,129028
-7,250977
-5,740356
3,02124
-3,726196
-2,920532
-8,358765
-2,01416
-4,934692
-4,02832
-5,941772
-2,01416
-9,365845
0,302124
2,416992
-1,309204
-2,416992
-1,409912
0
-4,53186
3,927612
-0,100708
-2,416992
-0,604248
-4,330444
-9,970093
-8,660889
-5,53894
1,611328
2,01416
10,37292
-3,726196
-0,100708
6,243896
-0,8056641
1,712036
-8,358765
8,056641
2,114868
-3,927612
5,136108
-3,826904
3,826904
-5,740356
-1,611328
3,726196
0,8056641
-17,22107
-12,5885
-6,243896
-2,920532
-7,855225
-2,5177
-8,157349
-6,344604
-2,5177
-9,365845
3,927612
2,114868
0,402832
-0,201416
-9,265137
0,201416
-0,50354
3,927612
-3,826904
4,02832
-2,618408
-0,50354
0,50354
-0,7049561
2,215576
4,129028
9,164429
-3,726196
0,9063721
-3,726196
4,330444
-6,344604
5,136108
-0,9063721
-0,7049561
-0,402832
-2,416992
-0,50354
-4,02832
-9,164429
4,733276
-1,107788
-5,841064
2,316284
-3,927612
-6,848145
11,38
6,143188
4,934692
0,402832
-1,913452
-14,09912
-4,02832
-3,726196
-0,100708
8,560181
3,625488
-15,20691
2,114868
-3,927612
-6,243896
-1,309204
-3,02124
-3,02124
-0,7049561
2,920532
2,719116
-6,546021
-2,316284
-7,653809
-1,913452
-0,604248
13,49487
-3,726196
-0,100708
-3,52478
-7,653809
-10,57434
-16,91895
8,862305
-0,8056641
-1,409912
3,323364
-3,121948
6,546021
-2,819824
2,215576
7,150269
0,7049561
-2,215576
1,712036
0,201416
7,250977
3,424072
-0,9063721
2,01416
-5,337524
-11,17859
2,719116
3,02124
9,265137
-4,632568
0,50354
-0,402832
-1,00708
-15,91187
-5,0354
-9,164429
8,358765
-6,143188
4,632568
-6,344604
2,215576
16,71753
0,402832
6,646729
1,812744
-2,5177
-0,50354
13,797
1,208496
-6,143188
-0,302124
0,302124
-5,639648
3,424072
-4,330444
-7,049561
-0,9063721
-3,52478
0,201416
3,826904
0,7049561
8,761597
-6,04248
-1,409912
2,416992
-0,50354
5,136108
-23,16284
4,632568
3,826904
1,309204
2,5177
-2,215576
-4,129028
-7,754517
6,948853
-3,02124
-4,53186
3,726196
-6,143188
4,733276
-5,740356
5,53894
-5,53894
2,719116
-2,215576
-2,719116
-6,243896
-5,740356
-5,740356
-3,726196
-7,955933
-8,056641
0,50354
-1,107788
6,143188
2,920532
-2,920532
1,913452
0,8056641
3,625488
-6,747437
-11,58142
9,970093
-3,121948
-6,646729
-0,302124
6,243896
-10,87646
-6,344604
-0,302124
7,150269
-0,9063721
0,604248
2,01416
-8,358765
-3,625488
-0,302124
5,438232
-4,129028
-16,11328
-2,01416
1,309204
-8,358765
2,5177
9,667969
-1,309204
9,567261
-5,438232
-3,222656
-5,841064
-14,60266
-9,365845
2,01416
-3,726196
-7,351685
-9,567261
4,934692
-3,222656
2,01416
16,61682
2,5177
-11,17859
3,826904
5,0354
-1,712036
-2,920532
-6,04248
8,459473
-0,100708
0,9063721
0,302124
0,100708
-1,309204
-10,97717
-0,8056641
-1,51062
-0,100708
-5,136108
0,50354
5,438232
-5,337524
-1,51062
0,7049561
4,833984
2,5177
-4,733276
1,51062
-15,40833
6,04248
3,625488
0,402832
-1,51062
-6,747437
0,7049561
-12,68921
-2,114868
-4,632568
-7,351685
-6,948853
0,7049561
3,323364
-2,114868
2,114868
-6,445313
-3,323364
-1,913452
-2,5177
-1,208496
-11,68213
-5,0354
4,02832
-2,5177
-3,826904
6,445313
-3,927612
0,604248
-2,316284
3,121948
-6,243896
-4,330444
-4,733276
-2,114868
-13,69629
-2,316284
-3,726196
-6,445313
-0,100708
-2,920532
-3,625488
-6,143188
-9,063721
7,150269
10,97717
-0,302124
-4,733276
1,309204
-6,243896
4,129028
-11,88354
16,81824
-0,100708
-3,121948
-8,660889
-6,344604
-2,215576
-1,51062
-12,99133
4,330444
5,941772
-1,309204
0,402832
1,712036
-6,344604
0,9063721
4,330444
3,222656
0,50354
5,841064
-17,6239
4,733276
1,309204
-6,747437
5,136108
0,8056641
3,222656
-1,00708
-5,136108
4,53186
1,812744
2,316284
-1,107788
-0,7049561
5,639648
7,452393
-5,639648
-8,459473
-6,143188
-8,963013
-4,833984
-18,42957
-5,740356
-2,215576
-12,18567
1,812744
13,69629
1,611328
5,740356
-11,98425
1,812744
2,416992
0,7049561
-1,00708
2,316284
-14,19983
-3,02124
-1,00708
-2,01416
-7,351685
-6,04248
-18,42957
0,7049561
-2,719116
1,107788
-5,639648
3,222656
-5,740356
-2,316284
-3,625488
-2,316284
-4,129028
-1,107788
-11,68213
4,229736
-10,57434
1,107788
-4,632568
-6,848145
2,416992
-8,963013
-1,913452
0,50354
1,712036
0,50354
-3,02124
4,330444
-0,402832
-4,53186
-2,316284
8,660889
-3,52478
3,927612
-2,920532
3,726196
-9,567261
6,948853
1,309204
-6,747437
0,302124
11,68213
-13,59558
-3,927612
8,056641
-5,639648
-6,243896
-0,7049561
-2,316284
-8,358765
18,02673
0,9063721
3,424072
-5,0354
-7,452393
-7,955933
4,02832
0,7049561
-1,107788
9,869385
-6,646729
-4,330444
-0,100708
0,9063721
-7,351685
1,00708
-2,316284
-1,309204
-2,618408
-3,826904
-3,52478
5,53894
-10,27222
5,53894
-0,9063721
-8,963013
0,201416
-0,201416
-1,107788
2,920532
8,358765
-7,754517
-1,309204
-1,309204
-4,53186
-4,330444
0,100708
7,754517
-4,53186
-4,330444
0,100708
4,129028
-5,337524
-1,107788
5,236816
6,948853
-0,9063721
-8,358765
0,302124
3,424072
-5,841064
1,208496
-2,114868
-4,129028
13,39417
-3,927612
8,560181
-38,974
-1,309204
1,812744
-0,604248
27,19116
-9,265137
-3,02124
-3,323364
2,719116
-9,869385
12,99133
3,927612
0,604248
5,136108
31,01807
-25,27771
-9,567261
13,39417
-18,73169
17,42249
-17,12036
-9,970093
2,416992
3,424072
-5,53894
-1,712036
7,855225
-0,7049561
-18,12744
27,99683
-15,91187
4,129028
-4,129028
14,40125
24,27063
-7,754517
-1,00708
14,80408
-2,114868
2,316284
-2,618408
0,7049561
-1,913452
12,38708
-1,712036
-1,309204
8,157349
-2,920532
-25,07629
7,553101
-12,38708
4,934692
2,920532
9,667969
8,660889
-0,100708
39,67896
-15,1062
2,819824
-20,44373
3,222656
-9,164429
2,416992
15,00549
-8,358765
7,250977
2,416992
2,920532
4,229736
-1,00708
-61,02905
1,409912
11,88354
-18,12744
1,00708
-1,00708
-2,114868
15,20691
-68,68286
-9,567261
2,920532
-4,129028
-0,7049561
1,812744
3,02124
-3,424072
4,53186
-9,869385
16,41541
-17,01965
-9,466553
0,201416
2,920532
13,89771
-4,129028
-4,129028
-1,00708
7,250977
0,201416
12,38708
18,22815
3,826904
-0,7049561
1,409912
-9,970093
10,37292
7,250977
-0,100708
25,68054
-17,22107
13,69629
-14,40125
-18,8324
-5,236816
1,309204
15,20691
-22,25647
-9,667969
5,337524
-15,40833
3,02124
29,91028
-12,5885
2,719116
3,726196
6,646729
5,0354
31,52161
-1,812744
2,819824
6,848145
-8,963013
4,229736
16,61682
2,920532
-8,358765
-21,55151
5,136108
3,52478
3,826904
20,64514
-19,33594
-8,660889
14,70337
-2,01416
1,107788
3,927612
0,100708
-21,3501
-0,201416
17,82532
5,337524
-8,963013
2,114868
-5,740356
21,24939
-1,409912
-28,09753
8,157349
-1,51062
3,927612
30,71594
-10,77576
-0,201416
17,12036
-13,797
-0,8056641
18,93311
-70,59631
4,330444
7,955933
-2,5177
-1,107788
20,74585
-3,02124
-16,61682
-4,431152
8,560181
-1,107788
7,150269
-12,08496
-2,215576
-17,42249
-1,913452
-3,726196
3,222656
39,17542
-2,416992
2,920532
-12,28638
3,625488
-6,948853
-0,302124
-19,53735
2,719116
-2,316284
-0,100708
24,27063
-17,12036
-28,09753
10,17151
-0,100708
-1,913452
3,726196
-42,90161
0,7049561
1,107788
7,855225
-12,48779
3,625488
-30,41382
4,934692
-6,344604
-8,056641
24,67346
-60,62622
-0,100708
8,660889
-10,27222
3,323364
33,13293
-11,58142
2,316284
-4,53186
-10,67505
13,29346
17,01965
-41,29028
-15,40833
2,316284
8,358765
44,91577
18,53027
-2,819824
26,28479
-24,37134
-3,927612
37,7655
9,768677
-20,84656
-118,3319
-108,5632
157,2052
-86,00464
-53,17383
119,1376
67,07153
-80,16357
-93,85986
-51,96533
-7,049561
-12,48779
-3,222656
117,0227
-84,19189
32,32727
-69,58923
99,80164
31,21948
-76,63879
-30,2124
40,08179
23,66638
-35,44922
29,00391
91,94641
-83,38623
-131,5247
18,32886
51,36108
4,632568
60,12268
78,95508
-7,150269
126,59
-132,0282
48,33984
-158,9172
-182,9865
-244,0155
211,2854
98,99597
8,560181
-38,67188
-1,812744
120,5475
-71,50269
30,91736
-234,3475
212,3932
-64,95667
193,4601
5,337524
0,100708
14,80408
-82,88269
140,6891
71,80481
201,7181
-105,4413
124,3744
-170,2972
179,5624
197,7905
-18,53027
222,0612
122,0581
324,6826
-22,35718
-57,8064
-1,51062
-50,2533
311,5906
-38,87329
-139,7827
-92,75208
186,3098
-34,54285
71,90552
-36,55701
-67,27295
-113,4979
135,8551
-14,30054
321,6614
-167,1753
399,7101
78,04871
62,53967
178,5553
251,4679
124,173
43,90869
-218,7378
43,30444
-36,95984
243,3105
-137,8693
204,6387
45,3186
-15,40833
-153,9825
-149,35
-158,4137
-106,3477
116,922
101,9165
109,9731
-76,63879
-51,66321
-47,93701
-149,4507
-1,309204
-42,8009
401,3214
-130,9204
-9,466553
144,7174
-90,83862
40,88745
-19,83948
-39,27612
78,14941
-74,72534
41,59241
42,49878
-26,78833
-71,60339
7,250977
42,39807
-42,49878
92,44995
-24,77417
68,68286
30,11169
-11,98425
21,45081
-100,4059
95,77332
12,18567
66,46729
49,74976
10,57434
-96,07544
-127,7985
-67,8772
42,19666
-20,94727
-22,86072
1,107788
-0,201416
65,96375
-63,94958
-282,9895
7,653809
151,767
-87,91809
-1,409912
71,7041
-32,42798
-0,7049561
-41,08887
114,9078
-12,78992
61,93542
-12,38708
76,43738
16,21399
2,920532
-132,9346
23,06213
-75,02747
-58,71277
136,3586
102,2186
-112,793
29,30603
-126,3885
-30,91736
39,17542
27,6947
50,95825
167,0746
-27,29187
94,46411
-37,7655
-51,26038
59,31702
-148,0408
104,2328
-381,9855
-34,24072
-152,5726
-11,58142
-26,3855
25,27771
37,56409
-115,3107
84,2926
-108,4625
-95,06836
20,04089
-53,47595
-8,963013
-9,063721
128,4027
13,99841
-123,3673
-13,19275
44,61365
57,10144
-32,12585
15,1062
41,69312
-51,05896
-134,848
55,89294
-141,1926
-53,57666
11,07788
13,19275
-12,38708
17,42249
-1,309204
-0,604248
89,02588
-3,52478
143,9117
-30,01099
-19,63806
-18,8324
-120,5475
12,5885
-54,28162
-31,82373
128,5034
-40,48462
-14,30054
40,38391
49,95117
0,8056641
32,7301
-25,78125
444,223
29,40674
275,7385
45,82214
-179,8645
-75,12817
-36,55701
167,8802
2,316284
546,7438
-8,761597
18,63098
6,646729
15,20691
168,0817
-40,1825
-90,03296
111,1816
-398,1995
5,740356
-82,07703
-15,30762
-76,63879
-1,107788
15,60974
436,2671
-40,88745
222,9675
43,60657
88,82446
-183,9935
158,6151
10,57434
54,28162
-33,53577
152,3712
-2,719116
311,792
-96,67969
-71,20056
-15,20691
-66,6687
-28,29895
-41,18958
398,3002
-155,4932
-16,21399
70,19348
82,88269
161,1328
-24,67346
8,459473
133,8409
24,47205
-193,6615
-15,1062
164,859
-108,1604
-28,50037
-351,9745
328,006
-67,27295
200,1068
122,5616
41,39099
-351,5717
-14,19983
-110,5774
135,8551
353,8879
-86,40747
-255,2948
-16,01257
42,90161
-5,53894
18,93311
328,6102
-245,1233
51,26038
140,6891
-108,8654
144,0125
-122,7631
17,92603
-10,0708
96,98181
-176,0376
376,6479
-272,818
557,4188
-107,7576
64,95667
-3,927612
-8,459473
12,28638
283,9966
-173,4192
-295,3766
-39,57825
-81,97632
-112,793
12,5885
-25,27771
-23,06213
158,4137
-31,32019
-237,8723
18,73169
-56,39648
-203,1281
21,45081
59,21631
34,54285
234,3475
-17,6239
65,96375
-29,50745
-132,431
90,83862
291,9525
-68,68286
-453,4882
-49,74976
93,75916
37,86621
180,8716
-11,38
37,46338
72,61047
108,4625
-39,57825
107,1533
92,75208
-7,049561
-2,416992
60,22339
67,97791
-57,9071
-28,29895
80,36499
-101,413
60,92834
9,063721
-0,100708
-43,70728
-69,28711
106,6498
-84,89685
-20,84656
-102,42
1,107788
75,53101
-65,3595
-35,75134
75,4303
20,44373
-49,44763
45,82214
21,3501
-11,58142
133,9417
-22,35718
-11,07788
20,04089
-92,75208
-71,60339
-376,2451
37,36267
-85,90393
212,6953
131,3232
-124,8779
59,71985
-16,41541
165,9668
38,77258
165,2618
45,62073
126,8921
-86,8103
-27,09045
153,9825
32,02515
-53,67737
-3,424072
44,81506
-122,9645
-165,9668
8,056641
-58,20923
-39,27612
-0,100708
-401,9257
2,618408
58,10852
11,98425
-305,246
-109,1675
-5,438232
96,98181
-41,4917
-24,97559
104,0314
206,955
-39,27612
51,76392
104,5349
-167,6788
-52,26746
-114,3036
8,358765
-232,5348
-8,258057
-16,11328
-91,745
73,01331
11,17859
-24,67346
-76,63879
-14,80408
-6,445313
47,03064
2,719116
36,55701
-113,9008
89,12659
191,8488
-107,4554
83,58765
58,41064
73,21472
15,50903
111,8866
-4,733276
2,618408
62,64038
41,18958
-69,1864
197,3877
40,88745
31,92444
165,6647
-102,2186
23,46497
381,9855
-204,0344
-19,63806
67,07153
-160,8307
-143,7103
-13,69629
61,83472
-29,70886
60,12268
49,44763
-27,89612
-78,85437
88,72375
-57,40356
-35,14709
-78,04871
2,114868
131,1218
13,29346
-44,0094
-62,74109
15,50903
-98,19031
-51,15967
112,793
-0,8056641
-5,337524
-60,72693
-78,04871
-154,2847
-52,16675
22,86072
59,82056
-31,32019
9,365845
109,2682
119,5404
-224,9817
-74,42322
0,402832
-152,3712
130,8197
-154,9896
58,41064
53,87878
52,26746
-29,70886
-242,0013
33,13293
26,28479
180,7709
74,2218
-20,44373
-37,7655
-132,6324
92,24854
-130,1147
-115,3107
11,48071
127,2949
-90,5365
0,50354
-58,81348
-28,70178
106,7505
106,6498
33,03223
-57,9071
-22,25647
-5,53894
-222,464
-113,6993
-65,66162
-61,43188
69,38782
34,34143
28,09753
145,5231
89,02588
145,1202
-455,3009
-13,59558
-32,83081
21,04797
-200,4089
-23,46497
-116,6199
21,3501
-42,39807
126,3885
287,3199
-164,9597
35,44922
-26,78833
38,77258
-54,78516
-2,114868
325,589
-198,3948
107,6569
-51,86462
60,82764
73,91968
56,09436
159,5215
-5,53894
11,78284
50,55542
-172,8149
21,24939
-113,2965
-184,0942
-142,6025
92,85278
-24,77417
-15,00549
-31,92444
5,0354
76,33667
-230,5206
8,761597
-93,96057
80,26428
-10,27222
-4,53186
-129,2084
106,4484
-44,41223
60,3241
-94,3634
-4,53186
0,201416
-28,50037
149,0479
76,84021
71,80481
-8,660889
-130,5176
8,761597
32,7301
-30,81665
-49,85046
194,3665
-142,7032
95,37048
-318,4387
97,38464
33,13293
17,92603
188,6261
-35,2478
-457,8186
-66,36658
-51,5625
58,61206
-78,04871
-33,63647
53,87878
147,1344
-391,8549
-42,90161
-50,55542
26,08337
-17,92603
76,13525
15,81116
-153,9825
36,05347
-91,14075
9,667969
229,2114
222,464
-83,28552
46,5271
-53,17383
46,12427
35,34851
322,9706
-29,70886
17,12036
-16,3147
4,129028
-235,3546
-89,12659
-3,323364
62,9425
-25,27771
-285,7086
-67,8772
67,77649
29,91028
-231,9305
-64,151
15,81116
19,03381
17,72461
122,9645
37,26196
-87,51526
456,0059
-85,90393
-10,67505
-210,9833
-4,632568
41,29028
78,85437
-39,27612
138,6749
-32,7301
-91,44287
18,93311
-27,6947
34,34143
76,03455
-21,24939
169,2902
-45,92285
-62,03613
29,91028
-135,0494
-3,121948
-9,365845
-333,2428
-92,44995
48,64197
-25,98267
38,67188
-293,3624
-118,5333
60,52551
115,5121
270,7031
17,82532
265,9698
-28,29895
-86,40747
-16,81824
4,431152
50,85754
27,59399
-131,7261
80,66711
123,7701
-29,50745
77,948
76,94092
-68,68286
30,2124
-4,229736
-81,57349
-10,17151
-47,7356
90,93933
-50,65613
144,516
-16,01257
97,18323
-101,8158
91,745
128,6041
105,7434
-69,1864
-55,99365
-85,90393
191,9495
144,516
-76,03455
50,15259
-65,86304
37,7655
44,31152
34,34143
-110,1746
63,74817
-11,07788
-46,42639
-0,8056641
107,959
-14,19983
108,3618
-49,14551
24,67346
83,58765
-19,94019
26,28479
-96,07544
-35,75134
-16,51611
67,07153
-129,4098
-37,36267
115,4114
-167,4774
15,50903
112,4908
67,07153
-29,30603
-11,58142
-38,77258
97,98889
48,13843
8,056641
31,82373
55,49011
-232,2327
121,9574
-134,4452
18,42957
255,9998
56,09436
10,17151
23,26355
60,72693
-61,12976
39,98108
1,812744
-81,7749
-51,66321
-11,88354
-70,69702
-16,01257
0,50354
8,358765
-79,45862
-13,69629
-13,89771
25,57983
97,58606
-15,00549
-9,063721
5,841064
-1,309204
-8,660889
2,316284
-32,7301
-9,164429
-4,833984
-39,77966
58,10852
-9,265137
23,46497
81,87561
6,848145
-2,920532
33,33435
-3,52478
-24,16992
-69,08569
9,667969
52,26746
-14,80408
-1,712036
-33,53577
46,42639
0,201416
-6,747437
63,94958
82,9834
-11,17859
57,8064
5,941772
1,611328
3,52478
11,98425
-35,85205
26,28479
68,88428
-4,632568
15,81116
-10,77576
-17,01965
-13,797
-6,848145
8,358765
30,2124
-20,1416
92,95349
12,08496
-7,250977
-11,2793
-4,632568
-3,323364
-30,51453
-0,302124
-7,955933
33,53577
-25,07629
4,733276
20,54443
-15,1062
4,129028
2,114868
21,95435
-15,81116
-5,337524
-18,63098
2,819824
-0,9063721
170,0958
-5,740356
-7,754517
-6,747437
-6,948853
-9,768677
-0,7049561
8,056641
-6,747437
-4,229736
40,68604
-5,941772
-8,761597
-65,15808
60,22339
-2,416992
-6,445313
-2,215576
-7,855225
2,719116
-3,52478
-9,567261
-34,64355
20,54443
14,09912
2,819824
16,61682
7,754517
-4,53186
29,50745
-27,89612
12,48779
38,36975
24,87488
20,34302
-0,604248
31,62231
35,54993
-16,41541
44,91577
-2,416992
2,114868
-23,06213
-0,7049561
-4,129028
-26,58691
-22,96143
-31,82373
-87,91809
-23,66638
-11,58142
-31,32019
-26,3855
-25,27771
-20,1416
-24,47205
-51,66321
-28,39966
-13,19275
-4,129028
2,416992
-8,862305
1,409912
-23,46497
-4,733276
-9,265137
-7,553101
-7,351685
3,52478
-2,5177
-36,15417
5,941772
15,91187
8,358765
-11,17859
6,948853
2,719116
28,70178
6,143188
2,719116
29,70886
-0,100708
-14,30054
-8,258057
3,826904
-9,164429
-10,67505
10,17151
-0,201416
-8,157349
16,71753
37,86621
6,646729
0
-5,53894
10,37292
37,66479
24,47205
9,164429
-12,28638
4,934692
7,754517
-46,62781
-11,78284
-5,0354
-13,29346
2,819824
16,11328
-18,63098
30,61523
-11,48071
-12,78992
-4,129028
16,91895
-4,229736
-1,913452
35,54993
-5,438232
-11,38
21,85364
2,114868
-8,761597
-33,9386
17,6239
-5,136108
8,560181
-6,546021
-24,47205
-7,653809
10,77576
-1,913452
6,948853
-7,855225
-3,222656
2,920532
4,330444
-8,761597
-11,58142
2,316284
3,121948
14,60266
6,747437
27,39258
-4,330444
-4,330444
-2,316284
8,761597
-17,42249
-20,04089
19,33594
0,50354
5,841064
-8,459473
9,768677
-18,93311
-16,11328
-8,862305
2,316284
-0,302124
-0,302124
-8,157349
12,18567
-10,17151
7,955933
8,258057
13,19275
-20,64514
6,445313
-5,438232
-10,27222
-12,78992
4,330444
4,733276
-23,26355
34,03931
1,107788
-4,632568
7,452393
-3,02124
-0,9063721
-4,330444
-4,733276
-5,740356
-15,1062
-9,869385
-57,60498
-12,38708
5,740356
-6,143188
-9,365845
-3,52478
18,42957
-3,52478
4,53186
3,927612
3,726196
1,712036
3,424072
-16,21399
-23,56567
-4,229736
-17,52319
-15,71045
0,7049561
11,58142
-39,77966
-7,955933
16,21399
-0,9063721
3,121948
-3,222656
12,38708
4,934692
-28,50037
19,43665
16,71753
4,02832
-10,0708
-2,215576
-3,323364
-1,00708
-45,41931
9,667969
-4,53186
13,39417
-8,459473
1,913452
-23,06213
13,09204
10,37292
1,309204
16,41541
11,68213
-21,65222
11,58142
-7,955933
5,337524
12,48779
-31,4209
-3,726196
7,049561
-7,955933
14,80408
-39,37683
-8,459473
9,970093
-2,920532
8,862305
-2,316284
-70,19348
7,250977
-31,92444
7,150269
11,68213
23,26355
9,970093
-10,17151
-1,51062
-20,44373
-1,409912
-16,41541
15,30762
22,55859
-10,47363
-16,21399
16,91895
-16,81824
-5,337524
1,309204
49,34692
7,955933
12,28638
3,424072
-23,56567
14,19983
-4,129028
-8,761597
-11,17859
-5,136108
-10,77576
-7,553101
-0,302124
9,365845
-24,37134
22,05505
-2,618408
10,37292
8,660889
23,46497
-4,53186
-0,302124
-23,8678
7,150269
-11,98425
1,712036
11,38
-1,00708
4,53186
-32,7301
24,47205
-15,00549
12,38708
18,8324
4,632568
-6,143188
-0,8056641
-15,81116
-32,52869
25,88196
4,53186
-6,344604
-7,855225
-18,02673
-1,309204
24,87488
13,39417
4,934692
2,920532
-8,963013
11,38
-2,416992
8,660889
8,056641
-2,719116
12,78992
-18,42957
-27,59399
27,09045
14,70337
15,20691
-0,8056641
4,53186
-43,20374
1,611328
10,37292
28,70178
5,438232
29,10461
-7,150269
-11,2793
16,81824
11,58142
17,12036
-4,733276
-13,39417
8,358765
-4,330444
-22,15576
38,36975
-15,91187
-26,3855
-1,309204
-6,143188
-21,04797
-12,99133
-28,09753
29,50745
5,136108
14,60266
-5,53894
-19,13452
-8,560181
-13,39417
12,5885
24,57275
-10,57434
12,99133
-74,92676
1,409912
-15,30762
2,114868
5,841064
-23,36426
9,768677
-1,812744
-19,03381
7,049561
1,51062
-13,19275
-8,258057
-7,452393
-23,96851
16,81824
-10,47363
-12,78992
-22,35718
-9,667969
-0,9063721
-0,9063721
-17,22107
7,553101
13,19275
-3,927612
-6,04248
-6,646729
-9,869385
54,58374
18,32886
-16,41541
-2,920532
3,826904
-12,28638
-3,222656
40,98816
-20,04089
-7,351685
-6,546021
-25,88196
5,337524
-26,78833
1,208496
13,19275
0
-13,797
0,9063721
17,42249
-1,913452
35,34851
22,05505
30,81665
-0,50354
-18,02673
7,855225
-22,55859
-4,632568
1,611328
-2,920532
-1,309204
-30,11169
-15,71045
-5,53894
-0,604248
-5,136108
-1,107788
-3,323364
-0,100708
-7,553101
-3,625488
-8,157349
7,754517
7,351685
3,52478
-10,47363
12,28638
2,618408
-1,812744
9,466553
0,50354
-31,01807
-10,97717
-7,855225
-7,553101
-2,719116
-3,52478
33,13293
-17,12036
18,8324
-50,15259
-12,48779
-16,3147
18,8324
-11,17859
-0,7049561
6,546021
-42,90161
49,0448
54,38232
-16,71753
-95,77332
-11,58142
-11,48071
0,604248
39,17542
29,60815
11,48071
42,49878
35,44922
27,89612
19,13452
6,747437
-1,611328
-18,8324
-34,34143
14,09912
-14,09912
16,51611
-8,862305
0,302124
28,60107
-14,40125
-37,86621
-35,95276
-20,24231
21,45081
-17,32178
20,64514
-45,01648
6,546021
92,04712
-31,62231
-2,316284
-3,424072
-16,01257
-29,00391
33,33435
0,9063721
46,42639
12,08496
-19,94019
6,445313
18,8324
-11,98425
-10,77576
-1,913452
-38,67188
-15,50903
-50,15259
91,34216
-14,09912
-52,46887
23,36426
-3,52478
-23,36426
-97,48535
-0,604248
-7,754517
-27,59399
-20,94727
-15,30762
48,84338
-90,33508
-31,4209
21,95435
51,5625
-24,47205
-13,797
30,51453
-26,08337
-21,3501
38,06763
17,42249
3,927612
6,747437
59,71985
-122,6624
14,30054
60,4248
29,60815
-16,11328
96,57898
-55,49011
-36,55701
38,06763
36,65771
-13,09204
45,82214
-34,64355
-87,91809
-4,129028
0,7049561
15,81116
47,13135
75,83313
38,26904
-9,265137
-13,49487
16,3147
23,16284
77,84729
-10,17151
52,26746
-5,337524
-118,0298
-39,57825
-36,75842
-26,68762
-36,65771
-44,41223
70,19348
-102,3193
56,09436
-4,632568
-39,27612
-24,06921
-2,01416
-99,09668
-131,0211
-10,57434
-36,85913
-27,99683
-28,50037
-86,50818
17,92603
49,54834
-98,79456
-41,08887
31,62231
-56,49719
10,37292
14,50195
-9,466553
-66,97083
-8,560181
-31,01807
105,6427
-83,28552
66,16516
9,265137
10,77576
-64,75525
50,65613
-102,1179
-66,76941
-33,73718
151,9684
-79,96216
-40,68604
2,5177
-74,82605
50,65613
-66,56799
206,1493
-209,1705
-16,11328
-20,44373
-39,98108
-27,59399
8,560181
-7,049561
38,67188
99,60022
-1,208496
-26,28479
-18,42957
-16,91895
-75,63171
14,70337
-1,913452
2,920532
16,61682
-181,4758
-28,60107
0,201416
-7,150269
-25,37842
79,45862
125,7843
-73,11401
-35,95276
13,99841
-69,99207
-112,793
262,7472
-29,91028
155,0903
-94,56482
3,424072
-134,848
13,39417
-19,13452
-75,22888
-25,37842
-42,7002
-28,29895
41,4917
68,88428
-34,74426
28,09753
54,78516
-47,8363
-93,65845
38,87329
-102,42
-77,44446
273,9258
-76,53809
55,08728
-27,79541
27,59399
15,00549
82,88269
24,27063
-12,68921
38,77258
-144,2139
-178,1525
-7,150269
39,27612
-190,036
86,70959
196,2799
-61,33118
104,2328
23,46497
-48,84338
2,01416
70,99915
-53,87878
-8,358765
-91,34216
55,99365
57,60498
47,8363
-44,51294
-68,78357
16,3147
-84,09119
11,17859
-75,73242
51,36108
52,36816
32,93152
72,30835
57,30286
-15,00549
97,98889
-34,34143
56,90002
-69,58923
34,74426
29,70886
79,86145
-57,50427
70,09277
-9,970093
-77,948
-28,19824
-39,88037
-34,24072
2,316284
-22,05505
-120,1447
6,848145
101,0101
-4,129028
66,87012
35,65063
20,64514
-210,9833
46,5271
5,337524
59,01489
-47,7356
-35,44922
-45,11719
116,0156
16,81824
3,927612
236,261
49,44763
-86,91101
-109,4696
-17,92603
-25,47913
39,37683
38,36975
-38,16833
47,93701
-76,13525
-11,07788
-65,05737
-60,02197
-10,17151
4,53186
0,604248
40,68604
17,42249
-26,48621
11,98425
24,37134
23,26355
-34,74426
12,89063
-107,6569
-81,87561
-109,9731
16,51611
-128,9063
-6,243896
16,61682
-31,52161
-28,50037
71,7041
-22,35718
39,37683
74,72534
1,107788
-22,86072
142,1997
-34,94568
-15,60974
53,97949
102,0172
69,1864
100,2045
25,78125
101,3123
-52,771
-31,72302
-62,8418
27,6947
-21,24939
-4,733276
-2,719116
-43,30444
-94,86694
108,1604
-106,4484
-22,05505
-3,726196
-28,60107
-146,5302
1,309204
58,51135
109,7717
211,8896
-17,32178
-54,0802
-135,4523
-23,66638
-71,20056
-30,71594
51,86462
-33,63647
-23,76709
38,77258
-266,4734
-113,4979
14,09912
-42,59949
-12,38708
-24,37134
-2,5177
-7,150269
-91,54358
-99,90234
25,177
73,21472
-133,7402
21,65222
2,719116
14,80408
-17,01965
-10,77576
43,10303
3,121948
-39,98108
-6,848145
-51,5625
41,39099
-56,79932
-19,73877
-44,0094
-155,6946
47,43347
-32,93152
15,1062
-66,26587
-27,39258
-41,59241
-165,2618
-31,52161
-32,12585
-12,08496
-31,92444
-24,47205
-5,136108
-15,30762
46,42639
-102,0172
12,48779
13,39417
-16,71753
-4,934692
-1,00708
-17,12036
-21,85364
-76,13525
-8,862305
13,19275
-32,02515
-8,157349
40,38391
-115,0085
11,88354
120,7489
-22,86072
-126,7914
6,546021
21,65222
-13,09204
-2,316284
-28,09753
-103,125
-28,80249
38,77258
-57,00073
-23,36426
-8,963013
-42,59949
8,761597
-69,99207
128,4027
-83,48694
-18,42957
-31,62231
75,63171
58,30994
20,64514
-15,40833
-6,344604
-78,25012
-61,43188
-12,18567
7,855225
-77,34375
45,62073
3,222656
40,78674
22,76001
175,3326
152,3712
-94,2627
-230,3192
55,3894
-196,0785
-102,0172
32,83081
-42,09595
-77,44446
-50,2533
-106,7505
-21,14868
104,2328
-3,826904
-16,81824
-2,416992
-20,64514
5,236816
54,88586
-74,02039
-9,365845
123,5687
-36,35559
-23,66638
21,95435
61,93542
-145,2209
92,34924
164,4562
-203,5309
-81,06995
-63,44604
-19,23523
-74,02039
-3,927612
17,12036
43,20374
-121,1517
29,91028
60,52551
-9,667969
-98,99597
52,56958
-11,78284
-87,81738
27,49329
12,38708
59,01489
22,6593
30,91736
1,611328
115,0085
-140,8905
71,80481
29,30603
-52,67029
14,40125
-69,58923
31,11877
76,03455
174,3256
5,236816
3,726196
12,38708
38,06763
26,28479
84,59473
23,46497
-46,32568
248,1445
-78,85437
34,54285
-58,91418
-0,7049561
0,201416
-28,09753
-6,948853
12,99133
40,1825
3,726196
-69,99207
-57,30286
210,5804
-85,29968
80,76782
49,64905
-60,22339
48,33984
-23,46497
-28,60107
-87,61597
42,59949
-5,740356
25,57983
-2,719116
-35,14709
-23,8678
-20,1416
-26,3855
-13,797
-24,67346
56,49719
-30,01099
-5,236816
-21,24939
-24,06921
-55,3894
-39,67896
-71,60339
-25,88196
17,12036
24,16992
-18,63098
-10,37292
0,604248
10,37292
-148,1415
84,69543
1,208496
16,21399
34,44214
-13,19275
-5,0354
-15,1062
-30,91736
12,99133
20,94727
20,64514
0,50354
-25,88196
-37,7655
-21,85364
-0,100708
19,43665
12,89063
6,344604
-10,67505
34,54285
-2,215576
-51,05896
11,2793
-33,33435
-36,15417
-34,74426
-30,91736
-4,129028
-4,53186
83,38623
57,10144
25,27771
89,42871
42,90161
5,841064
-12,18567
22,6593
-11,98425
-7,150269
-23,76709
10,17151
6,948853
-30,91736
-25,07629
0,9063721
-12,68921
-4,733276
-12,18567
-37,56409
55,79224
-48,33984
-5,236816
-20,44373
-75,32959
55,49011
-5,0354
5,639648
6,747437
-5,136108
-5,639648
4,02832
7,754517
-23,06213
-11,58142
-0,201416
-20,44373
-19,13452
9,063721
-46,32568
-3,424072
-65,56091
-19,03381
-35,54993
-32,7301
16,51611
-19,83948
-20,64514
-32,42798
-33,83789
-14,30054
-34,34143
-2,920532
-81,7749
-30,01099
-35,65063
-27,09045
-38,06763
-9,466553
-11,78284
-25,177
-55,49011
-19,63806
-8,862305
4,53186
-4,330444
-58,51135
-48,94409
-6,646729
25,27771
24,97559
29,00391
92,04712
74,32251
93,55774
110,8795
89,02588
93,45703
81,06995
33,9386
34,03931
14,60266
24,67346
15,40833
3,121948
-2,719116
14,30054
12,28638
3,826904
-0,402832
5,53894
26,28479
-9,063721
35,14709
51,86462
15,20691
19,03381
5,639648
17,12036
14,60266
-5,0354
-13,09204
40,88745
-1,107788
23,66638
1,913452
3,927612
-1,812744
-11,2793
2,316284
33,33435
-19,63806
-22,96143
-9,768677
-2,920532
-3,726196
-0,302124
-9,365845
-7,049561
-1,309204
-16,61682
20,94727
-12,89063
23,16284
-5,639648
-4,833984
-11,58142
-15,50903
-14,09912
-26,28479
-4,733276
-28,80249
-52,67029
-46,12427
-54,78516
-35,2478
-40,2832
-42,59949
-34,54285
-30,81665
-8,660889
-10,27222
-18,8324
3,826904
-5,841064
10,37292
-2,316284
-4,431152
12,89063
5,136108
-11,38
20,74585
-7,653809
0,302124
-5,639648
-7,250977
-11,98425
0,201416
-9,466553
-0,8056641
-0,50354
-1,107788
6,143188
-17,92603
2,920532
0,50354
-14,19983
0,302124
-8,358765
0
3,424072
12,99133
-4,229736
5,740356
-2,719116
9,466553
3,52478
-10,47363
11,78284
-2,719116
2,114868
4,53186
0,50354
2,114868
0,7049561
-0,100708
-7,452393
1,812744
-0,100708
-4,934692
-1,913452
1,712036
-4,129028
-7,351685
-5,53894
10,37292
9,063721
2,819824
2,01416
1,913452
-0,201416
-12,5885
-5,337524
3,222656
-8,358765
3,424072
-9,365845
-3,121948
2,01416
-4,53186
-8,358765
-1,107788
-3,927612
-3,121948
-4,129028
0,50354
8,358765
0,302124
1,107788
-6,143188
-0,201416
-4,330444
-0,7049561
-2,5177
-5,639648
-1,107788
-6,143188
2,114868
-1,611328
8,761597
-6,04248
-1,208496
-7,150269
-7,955933
-0,100708
1,00708
-7,754517
-3,121948
-6,848145
-2,114868
-9,365845
-1,913452
-1,611328
-6,646729
-6,546021
-2,316284
-2,114868
-3,323364
-2,114868
3,323364
-0,100708
-1,913452
-5,236816
-3,121948
-2,719116
-5,53894
4,53186
2,618408
-4,330444
-3,222656
0,50354
-0,9063721
2,316284
0
11,58142
-3,222656
-0,402832
-5,53894
-0,100708
-3,323364
-3,424072
-7,553101
-6,747437
5,236816
-2,920532
-4,632568
12,38708
-3,52478
-6,546021
-3,826904
1,309204
-10,0708
2,5177
5,53894
1,309204
-0,7049561
-0,8056641
-0,604248
-0,9063721
-4,733276
-3,927612
-6,848145
-0,7049561
3,52478
-1,00708
-2,416992
-7,553101
-7,150269
6,243896
-2,01416
-2,114868
11,48071
-2,618408
5,136108
0
-1,51062
-3,726196
-3,02124
-4,431152
-2,215576
-2,920532
-7,955933
-9,063721
-10,77576
7,351685
-1,208496
0,604248
0,201416
-3,52478
-1,913452
5,53894
-0,100708
-2,920532
-3,52478
-5,136108
-0,100708
-5,0354
-6,948853
-2,819824
-7,754517
-1,812744
8,459473
2,215576
-6,243896
-5,438232
-4,53186
-3,222656
-1,812744
-6,143188
-2,416992
-4,330444
-7,855225
-2,416992
-6,747437
-1,208496
-2,719116
-3,726196
8,761597
-1,409912
-2,920532
3,222656
-1,107788
-3,625488
-1,51062
1,812744
2,416992
3,02124
1,812744
3,02124
-10,27222
-5,740356
-0,9063721
3,52478
-2,5177
10,67505
-3,424072
2,316284
0,100708
-0,100708
5,841064
-2,416992
-9,970093
4,129028
-4,330444
-6,243896
-2,5177
-3,424072
-0,604248
-11,58142
-10,17151
5,53894
-9,869385
-6,646729
4,431152
-11,07788
0
-3,625488
2,316284
-6,646729
-12,08496
-7,351685
-5,740356
0,9063721
-9,365845
-5,438232
2,316284
-10,17151
-2,719116
-2,5177
-0,604248
5,740356
5,53894
3,323364
4,229736
11,07788
6,143188
13,99841
18,53027
17,82532
-2,114868
2,819824
5,53894
0,201416
-8,761597
6,747437
-1,611328
-5,337524
-10,67505
-3,927612
-10,77576
20,34302
-32,52869
0,402832
-10,77576
1,409912
-0,7049561
-0,9063721
1,309204
1,812744
5,941772
-9,667969
13,89771
-1,913452
-4,02832
2,316284
-3,121948
14,60266
2,5177
0,201416
-1,51062
-8,358765
6,747437
5,740356
-12,08496
-2,114868
5,53894
-4,330444
-4,229736
-3,222656
-0,302124
4,02832
0,9063721
-4,129028
-7,150269
9,063721
0,302124
-0,402832
-1,712036
-0,100708
14,50195
0,7049561
-0,604248
-18,8324
2,01416
-7,754517
-1,107788
-3,121948
-5,740356
3,323364
-15,60974
16,51611
8,157349
0,50354
8,258057
-6,948853
4,632568
-9,265137
-9,667969
16,51611
-5,53894
-22,05505
-5,136108
2,316284
1,409912
-8,963013
-14,70337
6,445313
-3,121948
2,215576
-2,316284
-13,19275
2,719116
9,365845
2,316284
3,927612
-2,5177
9,466553
-1,00708
0,7049561
-9,567261
3,323364
-2,416992
24,87488
-10,17151
4,431152
4,02832
0
3,323364
2,215576
-16,3147
-5,740356
-5,941772
-8,963013
6,04248
-0,604248
20,44373
-10,17151
36,95984
-2,920532
8,862305
49,24622
28,39966
-4,632568
-34,44214
-97,78748
-31,82373
-44,11011
11,78284
63,54675
26,88904
6,445313
-1,00708
12,18567
2,5177
0,604248
-14,19983
38,16833
-0,50354
12,68921
19,03381
15,60974
-27,09045
-1,309204
21,04797
-8,560181
-6,344604
-19,33594
-2,114868
-4,129028
8,963013
-3,424072
14,60266
4,833984
0,402832
-13,59558
10,57434
14,40125
-10,97717
9,063721
-20,84656
5,337524
18,02673
-5,0354
21,24939
-63,74817
-104,6356
-100,4059
-131,0211
13,797
-5,740356
-25,98267
-32,93152
-45,52002
-44,51294
43,80798
10,67505
4,833984
54,58374
-74,42322
-8,660889
-3,625488
20,54443
13,49487
11,88354
-1,913452
26,3855
39,57825
-16,41541
-27,6947
1,208496
21,75293
54,58374
-38,36975
38,67188
18,22815
6,243896
-9,265137
-19,33594
-15,20691
-44,91577
-29,60815
20,04089
28,9032
-29,91028
62,53967
-38,974
103,125
-29,80957
13,797
-56,19507
-1,309204
41,4917
-52,26746
34,24072
-84,69543
-73,41614
-15,40833
33,33435
49,85046
73,21472
-57,50427
3,424072
-28,29895
3,625488
-8,761597
-32,32727
42,09595
23,56567
-69,1864
76,84021
-26,88904
111,9873
-50,65613
-42,39807
108,3618
-90,5365
11,17859
153,2776
-12,78992
-37,96692
-4,229736
-80,36499
18,22815
3,323364
4,330444
71,09985
-8,358765
-79,2572
100,6073
-61,6333
1,409912
30,31311
3,625488
4,129028
14,70337
37,36267
51,66321
5,53894
21,85364
-6,646729
61,53259
-3,625488
5,136108
8,258057
6,747437
2,5177
51,05896
49,14551
38,77258
12,89063
15,30762
0,8056641
27,29187
-7,653809
-18,32886
-37,16125
-18,73169
11,68213
24,16992
0
0,7049561
5,438232
-9,466553
-3,927612
-4,330444
11,68213
-27,6947
-9,164429
-37,06055
-77,34375
22,6593
-0,100708
-0,9063721
-42,90161
-17,6239
-2,920532
-1,812744
11,58142
7,351685
-55,3894
4,229736
-24,97559
20,1416
32,62939
10,37292
14,70337
10,37292
9,970093
-24,57275
6,747437
-52,26746
-2,114868
-31,52161
-31,21948
-11,2793
-22,45789
9,063721
-1,309204
48,64197
37,56409
2,316284
20,04089
-34,84497
-6,04248
-4,129028
-4,330444
-3,927612
-7,049561
-52,26746
-26,88904
99,19739
-36,95984
52,97241
90,43579
-6,143188
0,402832
-154,184
-14,40125
-12,28638
-7,351685
9,768677
3,222656
37,96692
-79,66003
1,913452
-9,567261
-0,9063721
-1,409912
-4,330444
13,39417
16,41541
35,65063
4,934692
-39,37683
51,05896
26,98975
13,797
39,47754
-13,19275
-40,98816
3,927612
-40,08179
-17,32178
1,913452
13,19275
0,7049561
-72,00623
63,44604
-3,625488
11,58142
-4,833984
-22,35718
8,761597
-15,30762
-48,13843
58,71277
33,23364
-15,00549
-14,30054
20,64514
-60,92834
87,11243
-27,6947
-5,740356
-11,78284
-27,29187
47,33276
-24,77417
6,646729
9,768677
-90,33508
-43,20374
-13,797
110,6781
-35,75134
-27,29187
21,14868
58,71277
-55,49011
36,75842
13,49487
12,5885
-93,96057
-44,91577
31,11877
41,4917
116,6199
-29,60815
16,61682
21,85364
19,83948
52,771
-3,02124
-21,65222
50,45471
41,39099
76,13525
-55,59082
35,75134
30,81665
17,42249
-14,50195
54,28162
69,38782
31,4209
27,99683
39,77966
19,13452
-25,68054
33,9386
-14,90479
23,36426
-9,466553
3,927612
-44,41223
14,80408
32,62939
-55,49011
20,94727
-30,2124
30,2124
-4,733276
91,54358
-7,653809
1,309204
-17,12036
29,60815
10,17151
32,52869
129,9133
-82,78198
-2,114868
-43,40515
45,3186
-3,726196
69,08569
-45,01648
10,37292
-107,6569
39,57825
-17,12036
-1,51062
-18,02673
20,34302
12,89063
7,150269
-20,34302
76,7395
-82,07703
-40,08179
30,01099
119,9432
-13,797
-98,59314
17,12036
-30,91736
-12,78992
10,77576
11,2793
-83,58765
88,92517
-55,08728
4,733276
24,27063
67,77649
-36,15417
29,91028
-5,136108
-25,07629
117,3248
-18,8324
29,50745
24,27063
10,37292
18,32886
-10,97717
-20,94727
31,01807
-50,85754
-6,143188
22,76001
-16,3147
19,63806
40,78674
-15,81116
-4,330444
-88,11951
13,39417
28,50037
-62,53967
-38,87329
40,58533
20,64514
18,73169
9,063721
-12,18567
22,6593
5,53894
37,26196
-4,129028
-0,9063721
-33,73718
26,68762
-33,53577
-28,09753
-15,1062
-14,40125
8,761597
-34,14001
1,00708
8,761597
5,337524
33,13293
-51,05896
-9,164429
14,19983
1,309204
-43,00232
39,07471
0
21,45081
33,43506
-0,9063721
-61,53259
-38,36975
-22,86072
-1,51062
18,42957
-38,87329
-52,46887
-18,63098
-7,351685
-4,53186
-3,726196
15,81116
112,2894
-18,93311
10,47363
-6,546021
-0,9063721
44,31152
-76,13525
54,18091
-29,91028
2,719116
-33,33435
39,57825
34,34143
-46,42639
26,28479
30,81665
26,18408
-9,164429
-45,92285
-38,974
5,438232
14,30054
-0,8056641
-37,96692
-11,68213
-37,96692
-12,38708
-3,02124
-12,18567
-7,754517
-22,76001
-7,351685
-2,5177
8,056641
19,43665
4,833984
-5,337524
42,19666
-4,330444
-8,358765
-7,250977
-9,365845
58,51135
-2,920532
13,99841
18,42957
-7,351685
12,89063
-3,927612
7,150269
2,215576
-2,719116
10,27222
10,0708
5,740356
-0,302124
2,5177
-6,445313
-13,49487
-8,157349
-1,107788
-6,04248
3,625488
2,5177
0,604248
0,201416
0,302124
-4,733276
8,963013
-0,100708
3,323364
1,51062
-5,136108
5,337524
2,819824
6,143188
8,660889
-8,258057
1,409912
0,402832
-3,222656
5,236816
0,7049561
6,04248
1,409912
4,229736
7,150269
0,50354
0,7049561
0,302124
-3,323364
-3,726196
1,51062
-7,351685
7,150269
-7,351685
-5,236816
-3,726196
-10,27222
-4,733276
-9,164429
4,330444
0,201416
-8,963013
0,7049561
4,833984
-3,02124
1,812744
-7,855225
-3,02124
-8,157349
-2,719116
-4,129028
-2,618408
5,740356
1,812744
0,7049561
-0,402832
-4,53186
2,719116
-9,164429
3,927612
-1,208496
-6,848145
-1,913452
0,9063721
-7,150269
-0,50354
-5,136108
-7,553101
0,9063721
-6,143188
-4,129028
-2,920532
8,056641
-0,402832
-0,302124
5,438232
-0,100708
1,309204
0,201416
7,150269
-0,100708
-4,632568
-5,337524
1,712036
4,229736
-5,136108
-2,01416
4,53186
1,913452
-10,37292
-12,28638
-4,229736
-0,50354
-5,337524
4,02832
-7,351685
5,841064
-1,913452
-7,653809
0,9063721
-0,100708
1,309204
7,049561
0,8056641
-1,712036
1,00708
-3,121948
-0,100708
3,323364
-4,229736
-6,445313
2,920532
-0,100708
-0,100708
-6,243896
-4,129028
5,337524
0,7049561
2,01416
3,927612
-8,560181
-4,330444
-2,215576
-3,424072
-9,768677
1,00708
2,114868
2,416992
-4,632568
-3,424072
-3,625488
-0,9063721
-6,445313
3,323364
-2,5177
-2,01416
-1,913452
-5,438232
3,927612
-0,302124
-7,150269
-1,913452
-2,316284
-2,920532
-8,560181
-3,625488
3,52478
1,712036
1,409912
-6,243896
11,48071
-1,812744
8,761597
-1,107788
-5,941772
-3,121948
2,01416
4,632568
-5,941772
-0,302124
-4,53186
3,222656
7,351685
2,316284
-4,431152
0,9063721
-3,02124
-4,632568
-10,37292
0,9063721
4,330444
-0,50354
-11,98425
-4,02832
-0,9063721
1,00708
-6,646729
-7,049561
-2,719116
2,316284
4,02832
-8,862305
-4,129028
-4,129028
-0,604248
0,9063721
-0,9063721
0
-1,208496
0,50354
-3,323364
-7,049561
6,948853
-2,5177
-2,819824
3,52478
3,726196
-8,358765
-5,136108
3,424072
-2,5177
-9,667969
8,761597
-0,7049561
-6,646729
3,726196
-1,00708
-5,941772
-0,7049561
-0,201416
-6,344604
-2,719116
4,431152
-10,57434
4,129028
2,215576
-11,98425
3,323364
2,01416
-8,560181
0,9063721
-0,8056641
-6,143188
0,201416
3,02124
6,04248
-1,712036
2,5177
-8,157349
-2,719116
3,826904
-3,726196
-6,243896
0,402832
-2,719116
-0,7049561
-5,337524
-7,754517
3,323364
-4,330444
5,136108
-8,963013
-0,604248
-3,52478
-1,812744
-1,107788
-4,02832
0,8056641
2,01416
-13,797
-5,941772
-4,632568
3,625488
6,546021
-0,100708
9,768677
-4,229736
2,819824
-1,309204
9,164429
3,927612
-4,129028
5,740356
0,302124
7,150269
-1,611328
-4,02832
0,50354
0,302124
-5,438232
-2,719116
3,726196
-3,826904
-4,733276
-0,7049561
-2,316284
1,309204
-2,215576
8,358765
-2,618408
-7,855225
1,51062
2,316284
-6,948853
-1,812744
-5,740356
5,438232
-2,5177
2,719116
-0,100708
-5,740356
-9,164429
0,100708
-4,632568
2,5177
-9,164429
1,611328
-3,121948
-6,948853
-2,819824
0,7049561
0,402832
-4,229736
-0,402832
-5,438232
0,402832
0,7049561
6,243896
6,04248
10,0708
2,114868
6,546021
-1,409912
-1,309204
3,323364
-5,337524
-7,955933
5,740356
-7,452393
-2,316284
-2,719116
-1,107788
-4,431152
-3,424072
-3,52478
1,913452
-5,236816
0,50354
-4,833984
8,358765
2,719116
-8,963013
1,107788
-1,913452
5,236816
-7,754517
-7,955933
3,222656
-6,646729
0,7049561
-4,733276
-2,316284
-11,07788
3,02124
3,52478
-2,215576
-0,100708
3,726196
-0,100708
8,258057
6,143188
3,625488
3,02124
-2,01416
-1,51062
-2,215576
-3,02124
-0,7049561
-2,618408
8,056641
0,604248
7,250977
-7,955933
-6,948853
13,39417
32,83081
78,45154
117,1234
144,7174
88,11951
23,36426
21,45081
3,222656
-4,129028
-21,3501
-20,24231
-21,14868
-24,16992
-15,00549
-18,42957
8,560181
-43,40515
-91,14075
-75,63171
-56,69861
-74,2218
-47,7356
-27,29187
-34,14001
-58,91418
10,57434
-21,14868
-0,7049561
-22,25647
-33,13293
-8,358765
-8,157349
-11,2793
-2,416992
-3,222656
-3,02124
12,18567
-17,72461
9,164429
5,236816
15,50903
60,3241
-4,129028
-69,58923
-110,4767
-42,09595
-68,38074
-6,04248
-33,73718
7,351685
3,726196
-12,78992
7,150269
21,45081
2,316284
-17,01965
41,59241
-6,243896
38,87329
32,02515
0,402832
-0,50354
6,445313
34,54285
-18,02673
-7,754517
26,28479
-38,16833
-6,143188
-44,0094
-11,58142
24,06921
34,44214
-20,1416
-11,38
42,90161
-3,927612
30,81665
-30,91736
67,8772
24,87488
-82,07703
-29,70886
-64,35242
-10,27222
35,14709
71,40198
-95,06836
31,52161
32,32727
38,47046
20,04089
14,40125
-45,01648
19,43665
-99,80164
8,358765
71,80481
-18,93311
-43,00232
137,265
-3,52478
117,8284
-49,24622
-35,95276
121,3531
56,5979
-39,37683
79,05579
57,20215
33,33435
10,67505
-25,27771
149,0479
-73,31543
-73,81897
22,96143
2,5177
-37,56409
-17,82532
82,68127
48,23914
75,32959
-107,7576
41,89453
104,7363
-241,1957
-106,0455
-82,9834
-132,6324
-68,28003
-21,65222
-60,62622
116,922
58,71277
30,31311
84,49402
-11,68213
-94,76624
11,58142
-15,60974
18,22815
-12,18567
-17,12036
-113,2965
-153,5797
116,7206
-4,330444
-89,02588
-126,59
13,09204
61,83472
65,56091
-65,86304
-75,02747
40,48462
-22,76001
21,95435
16,71753
166,4703
3,625488
22,05505
-5,53894
38,57117
4,733276
29,80957
59,51843
36,85913
-14,70337
184,3964
-1,611328
-34,14001
18,73169
60,92834
33,63647
72,50977
-83,78906
51,05896
-55,69153
10,87646
-39,67896
-72,71118
-11,17859
-22,05505
-0,100708
-133,9417
1,309204
-127,1942
-11,98425
31,52161
-22,86072
-112,1887
-38,36975
172,6135
-115,8142
-89,83154
34,14001
87,81738
-40,88745
145,1202
-102,2186
69,68994
14,09912
-230,1178
-66,36658
-24,06921
-52,36816
-43,10303
43,80798
78,55225
-39,77966
0,7049561
-15,1062
164,6576
-136,0565
5,841064
-4,02832
173,6206
-5,136108
68,68286
-59,21631
15,81116
-68,48145
-62,9425
39,77966
143,1061
39,37683
-65,76233
80,66711
56,09436
24,67346
-46,42639
-23,66638
-164,859
47,7356
-47,33276
-68,98499
85,19897
91,24146
46,32568
-8,459473
22,86072
173,3185
-120,2454
22,25647
142,7032
-10,77576
-125,1801
59,01489
9,970093
-195,1721
-57,30286
32,42798
5,639648
109,1675
46,72852
-107,0526
-92,14783
39,67896
-66,06445
33,53577
55,59082
52,771
-4,431152
81,97632
5,337524
-181,5765
51,26038
-2,316284
-105,4413
-43,30444
-55,2887
-259,4238
-110,6781
147,1344
39,17542
-115,4114
227,0966
-32,42798
18,02673
-104,2328
-14,30054
16,81824
17,52319
12,68921
-167,276
-11,58142
-62,9425
-40,08179
32,62939
-8,157349
7,049561
21,85364
60,12268
-117,3248
-30,91736
130,719
196,3806
140,8905
-3,121948
105,6427
-13,89771
15,20691
119,7418
1,51062
5,941772
8,258057
-68,07861
-234,0454
-15,00549
-139,682
55,79224
15,60974
95,16907
-64,65454
96,37756
-5,136108
-42,19666
144,1132
-90,93933
13,59558
-160,5286
-239,1815
-206,1493
68,28003
69,1864
-5,941772
-273,5229
92,04712
-117,8284
12,18567
-87,81738
22,96143
2,819824
194,6686
-7,351685
-29,20532
-119,1376
-56,69861
-14,40125
-8,056641
6,344604
18,22815
-60,4248
98,79456
-95,87402
200,7111
-55,69153
-49,0448
-76,23596
25,98267
81,67419
-56,39648
-44,21082
-69,58923
26,48621
-16,41541
-63,04321
54,0802
67,37366
15,50903
78,45154
19,03381
-109,8724
-43,90869
50,95825
-110,7788
5,941772
6,646729
66,97083
23,8678
132,2296
48,03772
-151,767
-80,56641
113,3972
-1,107788
6,646729
-81,06995
-241,095
-104,2328
-13,39417
-67,57507
73,21472
21,24939
15,20691
-136,0565
67,8772
295,6787
58,61206
-10,57434
-19,83948
-36,35559
-116,3177
-70,3949
-25,27771
11,98425
-0,7049561
-135,8551
-140,387
76,33667
10,77576
-97,18323
-6,948853
-24,67346
30,31311
-10,57434
7,250977
-68,58215
243,9148
-150,7599
53,27454
-85,09827
-87,31384
-30,11169
145,1202
109,2682
84,89685
27,99683
-83,78906
-162,5427
-62,13684
15,30762
20,54443
-100,9094
-11,2793
-11,48071
-27,39258
-75,02747
-55,49011
-7,452393
-175,4333
-107,0526
231,0242
-32,02515
48,64197
9,869385
-40,2832
-56,09436
-31,32019
14,80408
66,16516
-239,5844
-217,2272
39,17542
-63,84888
213,501
-178,9581
-7,150269
-95,67261
-50,45471
-40,68604
237,5702
-41,39099
3,424072
9,667969
-88,62305
217,9321
-59,01489
234,1461
-3,625488
-339,5874
-126,9928
26,08337
44,81506
10,17151
-8,358765
-4,129028
11,17859
216,6229
-50,05188
267,4805
-64,45313
52,26746
104,4342
-109,8724
112,3901
33,33435
-79,2572
122,9645
101,2115
-211,3861
-45,82214
-47,03064
429,7211
-173,3185
46,32568
25,177
-31,4209
190,2374
14,60266
-44,21082
98,99597
132,7332
147,8394
55,99365
26,48621
19,33594
27,49329
-88,52234
78,35083
-65,3595
83,18481
17,52319
75,4303
-221,3562
-223,8739
20,54443
-205,9479
64,75525
-3,424072
-63,74817
89,12659
55,49011
-314,1083
-20,1416
-8,761597
144,3146
92,65137
-55,99365
152,8748
-73,61755
71,40198
88,11951
-116,5192
116,7206
-46,42639
237,2681
143,3075
-276,947
75,02747
25,98267
67,37366
-500,7202
-97,88818
2,920532
-5,740356
-97,88818
158,6151
-30,11169
120,4468
35,14709
139,682
32,02515
-21,85364
-82,07703
82,27844
189,2303
38,67188
66,06445
42,8009
50,85754
144,7174
-184,7992
86,8103
70,59631
-6,243896
-32,83081
364,3616
-63,44604
208,0627
81,57349
53,47595
-29,70886
57,30286
-103,4271
-7,049561
199,0997
-134,0424
-10,37292
162,0392
-84,79614
-42,19666
-22,15576
39,67896
93,85986
65,3595
-44,21082
37,7655
174,2249
-62,74109
-50,15259
205,545
129,9133
0,7049561
-158,8165
295,0745
-40,1825
-71,09985
-9,466553
35,14709
16,61682
-45,62073
19,03381
-247,7417
64,55383
-8,358765
30,11169
123,9716
141,2933
-16,51611
-14,30054
45,62073
239,0808
117,2241
14,50195
8,660889
101,6144
-82,78198
-56,19507
-89,12659
-0,7049561
-6,948853
-225,0824
-71,60339
-130,014
-2,719116
94,06128
-197,3877
145,4224
10,17151
21,3501
-23,8678
-53,67737
-124,7772
-38,26904
11,07788
96,7804
188,8275
-46,92993
-23,66638
89,328
-227,9022
154,5868
-28,70178
150,2563
-54,58374
227,7008
30,41382
154,5868
215,1123
-14,19983
-36,15417
31,62231
-56,39648
9,164429
-16,3147
-22,76001
-3,02124
-116,4185
-84,99756
39,98108
-9,164429
-120,5475
-50,2533
-101,7151
-113,1958
-17,92603
-31,32019
-44,21082
100,1038
150,4578
-28,29895
125,885
21,04797
-12,48779
14,19983
-33,23364
50,65613
-80,76782
20,84656
-20,54443
-5,941772
-134,848
15,71045
-41,99524
29,50745
21,24939
-2,618408
-23,8678
-68,07861
-16,41541
-52,8717
36,55701
45,52002
12,5885
-1,00708
19,73877
15,50903
-31,21948
-84,49402
-65,56091
-0,100708
44,11011
115,7135
-16,41541
-81,17065
-42,90161
35,65063
-27,09045
33,03223
-35,34851
11,88354
-134,6466
58,51135
-29,70886
-18,22815
22,25647
-27,49329
8,660889
-92,95349
30,31311
-10,27222
-200,1068
-27,29187
62,43896
49,14551
113,6993
-51,36108
-9,768677
-63,44604
-67,37366
126,6907
5,438232
387,6251
-139,1785
-86,70959
-14,40125
1,107788
-11,58142
5,236816
12,08496
-69,08569
170,5994
-422,0673
59,01489
59,31702
-143,5089
97,58606
-16,71753
-176,944
-137,97
157,4066
9,164429
147,3358
98,89526
-24,27063
-18,22815
-0,302124
47,13135
-187,619
-11,78284
-287,8235
-69,79065
-67,57507
94,76624
319,9493
-181,9794
-58,71277
-31,11877
45,72144
78,25012
50,05188
-204,9408
-118,5333
309,4757
-23,56567
-48,64197
-81,27136
181,2744
89,328
-16,21399
108,8654
80,66711
39,77966
96,57898
76,63879
183,9935
-6,646729
-49,74976
-174,7284
-35,14709
-17,52319
-58,91418
-39,77966
-10,67505
-0,100708
38,36975
228,6072
87,51526
-3,52478
-87,31384
40,2832
104,4342
6,948853
-80,66711
16,81824
-20,04089
-166,7725
143,7103
13,59558
17,92603
353,183
-81,7749
26,3855
8,459473
122,0581
-134,3445
107,8583
58,51135
85,40039
65,56091
51,96533
-2,114868
37,86621
178,1525
5,639648
95,06836
-164,4562
-250,2594
-70,79773
28,29895
-98,0896
80,06287
-38,974
95,67261
-144,516
-52,46887
55,99365
-31,52161
193,6615
-179,7638
36,75842
120,4468
-190,036
-101,7151
-29,30603
245,8282
115,3107
-1,309204
74,42322
-24,87488
212,8967
-54,58374
70,69702
-121,4539
63,84888
-78,45154
-1,611328
-46,62781
-50,65613
-46,92993
-110,6781
-247,3389
-68,17932
-70,69702
-215,3137
265,9698
132,3303
-5,740356
42,49878
247,0367
-25,88196
102,5208
-19,33594
41,29028
86,30676
362,6495
-79,86145
-44,41223
-19,33594
28,29895
-5,53894
68,68286
118,1305
-275,5371
83,18481
-52,46887
-206,955
60,92834
-238,3759
347,5433
-70,79773
-10,57434
-148,3429
-11,78284
-31,32019
-84,59473
5,841064
-194,2657
19,13452
74,62463
-147,3358
66,97083
-91,44287
12,28638
4,53186
322,7692
-214,4073
18,42957
25,47913
-60,92834
-12,38708
-26,58691
4,833984
64,65454
-58,71277
-55,08728
-21,85364
-86,70959
52,46887
42,59949
37,66479
-51,46179
-51,15967
-127,1942
-12,18567
16,3147
-14,40125
228,1036
-126,59
107,0526
-57,9071
123,468
-118,7347
108,6639
-23,36426
80,66711
24,27063
357,2113
-68,98499
30,71594
-80,56641
215,0116
-87,71667
68,68286
-23,66638
-114,2029
-96,67969
165,0604
12,89063
-83,88977
-76,84021
22,25647
58,71277
-99,2981
-124,4751
294,9738
-77,34375
-19,53735
-60,3241
-186,0077
-24,06921
173,1171
1,712036
-74,2218
33,33435
2,5177
66,87012
3,927612
55,3894
0
100,6073
-56,09436
41,29028
-123,3673
-73,51685
85,09827
-165,9668
-113,4979
-25,98267
32,7301
-89,52942
17,42249
27,09045
-24,47205
-38,77258
-20,04089
-76,03455
0,7049561
24,47205
12,28638
62,43896
-24,06921
52,16675
-37,16125
-60,82764
42,8009
-65,46021
10,57434
-12,78992
-18,8324
16,01257
-13,49487
-76,43738
53,47595
-47,8363
31,72302
28,50037
81,27136
28,50037
57,70569
106,9519
-12,78992
76,84021
-22,86072
26,68762
104,1321
-81,37207
33,83789
19,33594
194,4672
41,79382
-35,95276
-22,25647
27,09045
-78,14941
-36,35559
163,2477
181,1737
-216,6229
140,4877
-6,04248
-11,07788
-14,50195
69,79065
33,9386
183,3893
-67,67578
-37,7655
-71,09985
398,3002
-60,4248
-258,6182
13,49487
146,1273
-62,43896
-143,3075
-5,941772
33,03223
-86,30676
-7,855225
27,29187
209,5734
-24,87488
-5,53894
-17,01965
-54,0802
-169,8944
-34,44214
104,5349
88,72375
-30,41382
-35,75134
315,1154
-11,78284
-109,9731
-78,85437
-18,93311
-221,6583
4,02832
25,68054
162,0392
179,7638
-37,96692
135,0494
228,2043
-140,0848
64,151
-177,7496
-90,63721
-23,56567
-45,92285
-5,136108
-131,5247
8,358765
-20,44373
34,03931
64,05029
-11,78284
-254,0863
5,53894
-146,3287
-47,43347
-6,143188
-229,9164
-75,63171
25,57983
-26,08337
162,6434
-37,66479
-32,12585
24,57275
-94,66553
-93,35632
-137,6678
94,66553
91,64429
83,78906
166,0675
22,35718
-97,68677
-89,12659
51,36108
-30,61523
34,94568
16,81824
85,29968
-129,9133
92,55066
154,8889
-297,8943
-10,67505
-24,27063
-25,98267
-21,3501
-22,6593
-44,51294
164,4562
-58,51135
98,29102
98,39172
-7,049561
90,43579
-108,3618
-154,7882
29,80957
74,92676
-32,22656
-13,19275
75,73242
59,1156
-280,6732
-95,97473
-59,92126
-107,6569
12,28638
149,7528
-173,1171
-44,51294
-178,7567
71,80481
-135,3516
108,7646
-65,46021
-4,53186
188,2233
-100,9094
-64,75525
191,1438
-28,70178
-0,100708
-68,88428
-48,84338
-66,36658
214,7095
63,24463
466,983
52,8717
-20,04089
-32,22656
51,5625
-2,316284
110,7788
-29,00391
-1,107788
149,1486
103,4271
-71,50269
109,7717
97,78748
-90,83862
29,80957
18,22815
-89,02588
-109,9731
62,03613
4,733276
307,1594
48,94409
-1,107788
-29,60815
132,2296
-97,58606
-37,56409
91,14075
61,6333
-121,6553
-58,41064
91,94641
-42,59949
-71,80481
-214,8102
91,64429
20,44373
120,2454
82,88269
-38,87329
-5,136108
50,85754
85,80322
-39,17542
-5,941772
58,51135
31,21948
-7,250977
89,63013
-44,41223
4,129028
51,66321
59,71985
-104,4342
-4,833984
-21,75293
-362,146
-45,92285
55,89294
-180,368
116,1163
32,62939
92,85278
262,4451
-44,41223
-70,09277
39,57825
-59,82056
4,330444
32,32727
71,60339
-0,50354
-45,92285
-42,19666
-15,1062
62,33826
23,66638
-100,2045
12,68921
-27,79541
33,23364
28,80249
38,47046
-3,52478
139,5813
-181,4758
-15,50903
-46,22498
245,0226
120,0439
-94,16199
66,36658
83,38623
13,69629
40,68604
41,18958
67,37366
-35,34851
-87,91809
-34,94568
94,3634
-157,9102
-86,30676
177,6489
-11,2793
-3,02124
-20,24231
-155,9967
-11,2793
2,114868
-34,84497
-26,78833
74,12109
97,38464
20,34302
-142,6025
-23,66638
141,8976
-20,24231
157,608
-50,45471
-89,02588
17,01965
48,64197
11,48071
-41,08887
193,6615
194,0643
-88,11951
-26,98975
0,7049561
28,09753
-6,243896
68,17932
-33,9386
30,81665
-47,93701
52,06604
15,91187
16,01257
-87,21313
15,81116
48,44055
38,36975
0,604248
2,316284
59,82056
-69,99207
38,57117
-24,47205
-85,70251
-26,68762
28,19824
-143,3075
-33,53577
12,08496
-37,36267
75,02747
-45,52002
-58,91418
-48,54126
3,726196
18,73169
-32,12585
92,04712
4,53186
83,58765
-83,78906
-163,3484
-45,01648
2,5177
-95,77332
-54,28162
54,78516
28,70178
17,72461
122,3602
200,9125
16,3147
-59,92126
106,3477
-37,26196
21,14868
40,38391
-80,86853
-47,93701
32,42798
-109,8724
89,12659
16,41541
30,71594
-37,06055
-12,38708
-3,826904
-5,740356
46,32568
-125,9857
-54,48303
-390,6464
-120,7489
-102,5208
20,1416
-41,79382
-171,1029
408,7738
-239,0808
181,1737
0,302124
76,33667
-9,567261
-176,5411
17,22107
-63,14392
94,3634
-15,60974
-122,3602
193,2587
-223,2697
-24,97559
-40,2832
-60,52551
-35,75134
-131,9275
253,0792
-154,4861
-0,302124
-119,0369
-34,74426
138,7756
46,02356
123,2666
120,6482
-155,191
198,0927
98,0896
-159,5215
-78,55225
200,8118
-55,89294
-5,236816
10,67505
1,309204
124,9786
33,73718
-121,2524
-170,8008
-56,5979
-87,41455
326,1932
-23,8678
71,40198
-57,30286
-9,063721
-116,922
-2,719116
-69,58923
-38,974
-68,38074
-6,445313
-92,44995
201,416
-203,833
24,97559
-64,35242
12,18567
-11,07788
-98,79456
35,2478
-5,639648
-3,121948
-168,988
-57,30286
424,8871
-241,7999
-104,0314
-51,66321
-74,12109
-36,15417
-26,58691
-13,29346
130,1147
-75,12817
352,9816
-204,0344
181,1737
-13,39417
68,28003
-21,85364
-35,34851
-105,2399
-21,85364
16,41541
-403,3356
28,50037
-15,81116
-87,11243
-75,4303
-144,3146
-3,52478
19,43665
-10,57434
-97,98889
140,5884
-70,89844
337,7747
239,6851
251,4679
320,1508
40,78674
-9,970093
-64,45313
-12,18567
8,761597
29,91028
-70,19348
-435,5621
-78,85437
31,32019
37,16125
-203,7323
-35,54993
-43,70728
-214,1052
-13,797
-132,3303
12,5885
-125,7843
-69,48853
30,11169
-25,07629
-0,100708
-13,69629
-254,0863
59,82056
-12,38708
-76,03455
275,7385
-122,7631
-15,1062
-69,1864
17,42249
18,02673
13,29346
-67,27295
-39,98108
-452,2797
0,402832
-0,9063721
-15,1062
-176,3397
-0,7049561
-61,93542
-43,50586
-35,44922
52,06604
-20,44373
-34,54285
139,4806
-102,7222
-130,719
-47,93701
4,129028
-7,553101
-357,5134
-83,08411
68,78357
-62,13684
88,11951
-58,10852
-128,2013
-68,28003
-48,94409
-13,19275
-117,8284
-97,38464
-40,2832
-5,941772
-50,05188
54,88586
-63,44604
-17,12036
9,466553
112,088
23,66638
-114,0015
-124,173
-54,68445
40,78674
-54,28162
45,52002
116,5192
69,79065
69,48853
54,88586
-36,05347
-2,5177
126,1871
-50,75684
2,416992
236,1603
10,87646
-10,37292
-159,9243
-30,41382
-32,42798
3,625488
-31,92444
87,51526
28,39966
-36,85913
-103,2257
-61,53259
-11,17859
153,1769
-37,36267
-70,49561
140,8905
-116,7206
21,24939
63,74817
64,65454
79,35791
-54,18091
-57,8064
14,19983
-346,9391
-122,2595
174,8291
-69,99207
234,549
-125,3815
200,4089
64,45313
-80,86853
0,50354
2,416992
0,201416
76,53809
85,80322
62,53967
-23,76709
73,11401
-25,78125
147,8394
-251,3672
-28,09753
-47,13135
179,361
-61,33118
32,93152
-81,17065
-162,8448
111,1816
50,85754
-0,7049561
31,62231
161,3342
-30,61523
-82,07703
-23,26355
-58,20923
-34,74426
53,87878
53,27454
16,91895
115,0085
36,55701
-2,316284
97,98889
-60,52551
39,47754
47,93701
-80,56641
163,4491
114,505
228,5065
-77,34375
12,99133
-25,47913
-132,2296
-26,08337
-12,48779
1,812744
-217,0258
66,26587
72,50977
102,8229
60,12268
-41,39099
103,4271
141,5955
-111,9873
63,54675
57,40356
-135,6537
59,41772
-127,7985
-129,8126
-60,22339
-84,89685
17,12036
29,10461
-358,7219
-18,12744
90,43579
-68,17932
-76,03455
47,53418
-218,8385
-30,61523
32,32727
-1,208496
-99,3988
20,54443
-82,88269
-63,04321
42,09595
-384,906
-45,62073
-23,8678
20,1416
38,16833
-14,40125
-83,18481
-22,05505
21,65222
246,5332
-9,667969
-41,79382
9,063721
-257,6111
44,71436
109,3689
8,056641
108,4625
21,85364
-42,09595
-44,31152
216,3208
-57,60498
-87,11243
-26,78833
156,5002
-65,56091
43,40515
-226,2909
3,02124
-176,5411
-64,65454
81,47278
12,38708
88,62305
-11,98425
24,37134
159,0179
16,81824
206,8542
169,2902
-116,922
48,84338
-96,47827
-47,03064
35,14709
-193,158
-31,72302
-11,88354
-45,62073
-25,37842
41,08887
-128,9063
148,2422
-22,76001
-92,75208
-195,3735
-41,39099
-37,96692
-25,78125
-171,3043
66,46729
-163,2477
-168,2831
30,01099
4,53186
-167,6788
-26,68762
28,80249
33,13293
-134,2438
229,5135
119,7418
-51,46179
-131,0211
159,5215
-412,1979
-192,3523
42,59949
-74,02039
172,7142
-23,26355
89,73083
-126,0864
-36,05347
97,68677
13,797
-15,40833
-148,0408
42,39807
221,0541
-108,6639
-10,37292
133,5388
48,94409
-66,36658
4,330444
15,20691
-21,04797
236,5631
21,75293
-62,8418
-51,46179
59,82056
23,66638
-96,07544
31,82373
77,34375
-27,19116
78,25012
79,2572
-72,20764
25,68054
66,76941
43,60657
86,10535
-71,80481
-132,431
-26,18408
-182,4829
-54,88586
36,25488
-41,79382
36,25488
-21,65222
41,39099
75,12817
84,2926
6,04248
125,7843
-151,8677
-2,719116
-0,100708
-64,35242
-55,89294
-10,57434
-42,19666
-24,06921
-39,37683
244,2169
-17,01965
0,302124
5,0354
-97,28394
-11,58142
-22,25647
-78,65295
28,50037
63,14392
-40,08179
150,9613
-2,719116
-10,57434
-15,30762
-1,51062
-24,57275
-42,90161
-64,75525
26,08337
-25,37842
-45,92285
33,73718
-22,35718
-33,63647
10,97717
-58,20923
37,7655
-20,94727
8,761597
-26,58691
-21,55151
-13,19275
41,89453
-78,35083
2,01416
-10,27222
23,76709
-24,67346
4,53186
-5,337524
-12,48779
-32,52869
-9,970093
12,38708
52,06604
38,77258
44,0094
-12,5885
-1,913452
-17,42249
2,316284
23,8678
24,67346
35,04639
18,22815
34,84497
30,81665
44,81506
33,23364
33,73718
18,22815
-1,51062
-2,114868
-0,50354
3,121948
4,330444
-9,164429
-13,29346
-26,08337
-23,16284
-10,27222
-8,862305
-12,18567
-0,100708
-12,28638
-18,8324
-7,553101
-9,970093
-1,812744
-4,129028
-0,100708
-16,11328
-7,250977
3,02124
-13,39417
1,309204
-0,8056641
-1,611328
5,136108
10,37292
1,611328
10,37292
13,59558
8,358765
0,604248
1,611328
-9,063721
-6,747437
-0,302124
-4,934692
-6,445313
-3,02124
-12,78992
-2,114868
-2,316284
0,9063721
2,5177
0,9063721
4,129028
-4,02832
-0,100708
-9,667969
-8,761597
-5,53894
0,302124
-1,309204
-1,51062
5,438232
-0,50354
6,445313
-1,913452
1,712036
13,19275
11,38
34,84497
58,71277
76,43738
75,32959
49,44763
42,59949
20,24231
-11,07788
-9,164429
-26,78833
-43,40515
-61,23047
-58,91418
-45,2179
-49,85046
-24,87488
-36,35559
-27,29187
-20,54443
-15,60974
-0,100708
-9,063721
-19,73877
-5,941772
-8,560181
-5,136108
-3,927612
4,02832
10,87646
8,761597
10,67505
2,920532
4,934692
0,50354
11,98425
6,948853
0,8056641
-6,445313
-3,52478
-12,99133
-7,955933
4,632568
9,970093
5,136108
3,52478
22,96143
10,77576
11,07788
4,330444
4,02832
-6,747437
-3,52478
-19,13452
-6,344604
-7,653809
-15,00549
-10,0708
-1,51062
1,309204
4,229736
2,01416
13,69629
5,53894
6,848145
8,358765
2,618408
1,611328
-7,250977
-6,143188
1,107788
-11,88354
-12,99133
-8,963013
2,416992
-7,452393
-8,761597
-3,52478
1,913452
-11,17859
-5,0354
10,27222
8,358765
14,60266
3,726196
1,812744
6,948853
0,7049561
-0,100708
-4,129028
-6,243896
3,02124
3,222656
-2,114868
-15,20691
10,27222
-14,19983
-10,67505
-7,754517
-11,98425
-5,841064
-12,18567
-10,37292
-10,27222
-4,129028
-3,424072
-5,740356
-0,604248
4,129028
7,855225
9,869385
11,78284
14,40125
11,07788
7,452393
8,963013
11,38
2,114868
2,114868
-1,309204
-11,2793
-9,768677
-18,22815
-9,768677
-6,344604
0,50354
3,927612
-1,409912
-9,164429
-2,316284
-4,229736
0,402832
-9,869385
-3,121948
-1,51062
0,100708
2,114868
7,150269
7,855225
8,963013
4,934692
7,553101
13,39417
4,934692
-4,330444
-0,7049561
-2,416992
-1,309204
-3,52478
-1,913452
-1,812744
-5,639648
-2,819824
1,00708
-5,0354
5,53894
-1,309204
-0,100708
-7,351685
-1,208496
-4,632568
1,712036
-3,927612
-2,114868
-3,02124
-4,733276
-7,049561
1,812744
-6,546021
-2,719116
-6,747437
2,920532
-0,9063721
-5,236816
-2,719116
-5,740356
-13,29346
-12,78992
-1,913452
-0,100708
-5,740356
8,963013
1,00708
4,53186
13,59558
0,302124
2,114868
-3,121948
-6,747437
-3,826904
-12,78992
-2,819824
-8,862305
-7,049561
-8,560181
-5,941772
-3,424072
-4,733276
-8,358765
-8,358765
-8,963013
-2,719116
-8,660889
-0,604248
15,71045
-1,107788
7,150269
20,44373
4,934692
15,30762
0,302124
-4,733276
2,114868
2,114868
-9,869385
2,316284
-9,365845
-8,258057
-3,222656
1,812744
5,337524
5,337524
-5,53894
-5,0354
-6,546021
1,712036
-6,546021
-8,459473
-6,344604
4,02832
3,323364
12,18567
-9,567261
-0,9063721
3,625488
0,50354
-1,913452
-3,121948
-7,955933
-1,712036
-11,88354
1,208496
-6,143188
-2,719116
-3,121948
-2,5177
4,934692
0,402832
-12,99133
4,431152
-0,100708
-2,920532
-4,129028
11,88354
0,302124
0,50354
-0,302124
1,107788
1,409912
5,841064
4,833984
7,150269
14,60266
5,639648
11,38
3,927612
10,27222
0,100708
-8,258057
1,712036
2,719116
-6,848145
1,00708
-2,215576
-9,063721
-2,316284
-4,833984
5,136108
2,5177
-7,855225
-0,50354
-2,215576
-3,726196
-3,121948
-3,625488
-4,330444
-1,409912
-1,107788
0,8056641
-0,100708
1,611328
-4,330444
4,330444
-12,08496
0,7049561
1,913452
-4,733276
4,833984
-6,04248
2,618408
-5,236816
0,402832
9,063721
-3,52478
-1,107788
1,208496
1,409912
1,00708
-4,53186
6,243896
-8,560181
-3,826904
-10,77576
3,323364
-0,201416
-12,18567
-5,941772
0,604248
-4,934692
0,100708
2,719116
-5,0354
-1,51062
0,100708
0
0,9063721
9,567261
-0,201416
4,733276
-7,351685
-6,747437
-2,719116
-3,826904
-2,215576
0,50354
-6,344604
-4,02832
-5,337524
4,53186
-8,660889
5,941772
-0,100708
1,208496
-2,5177
-5,740356
0,7049561
-6,546021
5,740356
-2,618408
-7,150269
3,02124
-0,100708
0,604248
-5,53894
-0,50354
-4,632568
-0,7049561
-3,323364
-3,222656
4,229736
-3,52478
-1,812744
-0,604248
-7,855225
2,819824
-6,747437
0,201416
-0,9063721
-10,0708
0,7049561
-2,215576
-1,309204
-1,309204
-9,265137
-3,323364
-4,53186
-5,941772
-0,9063721
-1,913452
-3,121948
-14,50195
-7,452393
14,09912
2,920532
5,740356
10,17151
-5,337524
8,963013
7,351685
9,164429
23,16284
1,712036
4,53186
-213,7024
-49,24622
-15,00549
-31,72302
19,94019
0,9063721
-74,42322
7,150269
10,57434
10,0708
25,07629
18,73169
-0,50354
16,21399
15,20691
15,20691
49,24622
-49,44763
-9,063721
51,86462
6,747437
-15,40833
17,72461
-24,67346
4,431152
35,95276
-50,85754
-1,309204
-38,67188
9,667969
57,8064
-160,73
12,38708
-87,91809
-27,09045
25,47913
-40,08179
8,358765
45,11719
117,5262
-65,25879
-4,733276
-24,77417
-29,91028
-160,73
-99,3988
-42,90161
-63,64746
-46,42639
-16,41541
160,2264
-20,64514
55,18799
36,4563
37,96692
-45,92285
109,8724
-11,48071
84,89685
57,8064
-173,6206
66,76941
24,16992
-82,78198
11,78284
-45,72144
-16,51611
77,14233
45,41931
-79,15649
184,4971
-91,14075
-70,59631
26,78833
16,91895
-25,177
-99,09668
43,00232
-80,16357
-34,74426
84,2926
-97,98889
5,236816
-85,70251
-18,22815
184,4971
-5,841064
-242,1021
68,68286
243,8141
102,8229
-408,7738
-17,92603
-169,4916
129,8126
206,5521
-233,5419
29,30603
-106,3477
-319,5465
-115,3107
79,66003
-117,4255
56,90002
79,2572
229,4128
298,5992
-25,47913
-140,9912
-245,224
50,55542
-24,16992
99,19739
-169,5923
205,8472
109,8724
103,0243
-292,8589
-193,2587
-34,14001
-199,0997
-106,5491
56,49719
-49,54834
29,60815
183,1879
-244,9219
-6,143188
-41,39099
-44,51294
-111,0809
130,6183
-26,08337
-160,9314
-125,7843
-199,8047
139,1785
-7,955933
26,98975
-217,3279
-104,6356
43,30444
-153,7811
157,5073
311,3892
-146,1273
138,7756
44,11011
25,47913
-42,39807
151,5656
8,761597
-124,5758
-11,78284
9,869385
-8,660889
-15,60974
-19,03381
2,5177
-142,9047
219,6442
-47,8363
-53,07312
136,5601
-63,04321
-18,63098
4,833984
-194,3665
4,02832
-6,04248
13,19275
-10,77576
86,10535
-61,02905
28,09753
114,505
16,41541
-41,59241
-72,30835
-69,99207
-36,85913
47,63489
-25,88196
-33,13293
45,82214
-28,70178
-14,40125
-82,47986
-42,59949
60,02197
82,68127
-82,27844
162,442
-27,39258
24,06921
5,53894
-61,23047
37,56409
13,797
-30,71594
-51,5625
0,604248
86,30676
-50,85754
8,761597
-62,74109
-19,83948
29,20532
22,86072
-9,063721
86,00464
108,8654
-226,2909
101,7151
-29,30603
-2,215576
-63,24463
28,50037
-102,0172
36,15417
73,41614
-6,848145
-20,64514
-73,71826
21,3501
-78,25012
-126,4893
-1,00708
60,12268
50,45471
-24,67346
-29,00391
-32,12585
25,47913
68,48145
-68,38074
37,96692
-54,18091
9,667969
70,19348
47,7356
-101,413
-78,25012
43,80798
10,37292
-34,14001
102,1179
21,04797
5,53894
13,797
-79,66003
44,21082
11,98425
-65,56091
33,13293
-121,1517
-178,1525
-128,2013
-0,604248
-41,59241
90,23438
3,52478
94,3634
-18,32886
-58,30994
34,24072
-100,9094
-79,66003
-12,78992
118,5333
-29,60815
25,98267
-45,62073
17,32178
-85,09827
98,69385
-40,78674
-181,4758
-83,48694
83,18481
-5,236816
-12,28638
-37,96692
59,92126
17,32178
-66,97083
227,9022
39,17542
62,23755
-34,94568
-36,95984
130,5176
53,77808
-1,208496
-106,6498
20,44373
259,8267
0,50354
-300,3113
-49,24622
7,452393
34,03931
-48,44055
37,36267
-167,4774
108,9661
77,54517
-80,96924
96,98181
97,98889
-144,3146
172,5128
-281,2775
-124,2737
49,14551
94,3634
-172,11
-6,04248
183,3893
96,8811
-80,76782
-220,752
-142,099
-44,31152
-7,351685
151,2634
117,1234
69,68994
311,6913
-6,747437
-0,50354
266,0706
-209,7748
-58,20923
-153,479
511,2946
-88,72375
537,0758
-252,0721
40,2832
-69,68994
-293,4631
171,405
57,50427
106,4484
-21,04797
-27,09045
261,8408
-80,4657
-25,78125
-404,3427
-85,80322
76,33667
-348,9532
89,12659
-27,6947
13,29346
-150,6592
81,17065
86,70959
-18,42957
-83,99048
125,2808
-159,0179
-33,33435
1,208496
7,452393
81,37207
25,88196
-103,4271
-69,28711
37,7655
-47,43347
90,93933
0,100708
-129,8126
41,99524
192,453
30,11169
-124,173
142,7032
-71,09985
82,47986
-17,6239
-1,712036
96,37756
165,0604
58,61206
36,55701
-160,1257
45,2179
-8,963013
76,84021
-85,09827
81,17065
-92,14783
-10,37292
66,36658
-83,78906
-46,92993
94,2627
-28,09753
9,869385
-8,560181
-80,26428
173,3185
1,712036
-69,08569
52,67029
42,90161
31,21948
-35,85205
-90,03296
0,7049561
99,09668
97,58606
180,1666
-106,4484
-125,4822
-160,6293
-37,7655
-11,07788
15,50903
59,31702
-32,32727
64,25171
-38,77258
60,02197
-49,85046
-49,24622
11,98425
3,927612
11,88354
-22,05505
29,91028
-54,0802
-31,52161
283,8959
-178,656
-32,02515
36,75842
37,06055
-8,560181
-86,91101
115,3107
120,3461
11,78284
125,7843
0,201416
34,94568
-35,75134
-29,80957
-7,250977
100,0031
-36,15417
-34,14001
-114,1022
-311,6913
7,150269
5,941772
-2,719116
-52,06604
-17,42249
-68,98499
-2,416992
47,7356
-49,44763
25,27771
-65,3595
15,50903
57,8064
43,30444
-7,553101
62,64038
207,5592
45,62073
106,5491
61,23047
-208,4656
96,37756
-34,94568
11,68213
-106,2469
-142,7032
100,2045
24,47205
-47,03064
78,04871
-53,17383
-23,06213
-50,354
-152,5726
34,14001
65,3595
-62,53967
-257,8125
-50,2533
3,726196
-67,27295
95,77332
100,8087
67,37366
-24,97559
-56,29578
21,75293
-16,91895
-2,5177
-50,85754
21,04797
-44,11011
84,39331
-111,5845
-15,20691
-19,33594
-20,84656
-1,712036
-91,745
41,99524
-2,920532
-9,768677
-16,81824
-32,22656
-19,33594
23,46497
-8,459473
9,466553
10,77576
5,438232
28,80249
23,16284
6,546021
-36,05347
4,129028
-32,22656
-26,58691
-16,21399
-3,121948
-4,733276
-3,927612
17,82532
33,33435
8,358765
35,14709
11,07788
8,560181
17,12036
12,99133
-7,351685
18,12744
11,07788
9,063721
10,27222
7,049561
15,30762
20,44373
10,37292
0,9063721
2,920532
0,50354
0,7049561
-5,337524
2,719116
-15,71045
-9,365845
-5,337524
-20,74585
-5,639648
0,302124
3,323364
5,438232
5,740356
-10,97717
-1,611328
5,236816
-3,927612
-13,89771
0,100708
-7,150269
-10,77576
7,553101
-5,740356
-10,0708
-9,063721
-8,157349
-9,768677
-11,68213
-4,129028
3,323364
-0,100708
4,02832
-1,107788
-12,68921
-1,913452
-7,955933
1,309204
-10,77576
-2,920532
-1,309204
2,5177
12,5885
-18,42957
2,316284
0,402832
3,625488
-3,02124
5,438232
-0,100708
1,812744
2,920532
-3,121948
0,50354
-4,330444
-2,819824
-1,409912
6,948853
-14,80408
-5,53894
3,826904
-0,604248
0,302124
7,653809
-0,100708
-1,107788
-2,316284
5,740356
-0,9063721
-0,100708
3,726196
-5,841064
-2,01416
-0,100708
-6,143188
-0,302124
-1,913452
-7,855225
-11,88354
-2,416992
8,963013
-5,0354
-3,02124
-0,100708
-1,208496
6,445313
-2,618408
8,660889
-6,143188
-6,948853
-0,50354
-2,920532
-4,833984
2,719116
-5,841064
8,358765
-7,250977
0,201416
-0,100708
-4,934692
1,812744
-6,143188
0,50354
7,452393
3,726196
5,53894
-6,445313
4,934692
2,416992
-3,222656
11,07788
-6,948853
-4,330444
-2,114868
-4,229736
0,8056641
-5,236816
-5,438232
-3,222656
0,302124
-1,309204
-1,00708
-2,920532
3,222656
4,53186
0,9063721
2,5177
-2,416992
0,100708
7,553101
-0,604248
-4,53186
3,424072
-0,9063721
1,00708
-3,52478
-6,646729
-0,9063721
1,913452
-2,618408
-4,02832
-2,215576
-4,129028
-1,712036
-3,927612
-4,53186
-0,50354
0,7049561
0,302124
0,402832
-10,37292
0,604248
2,719116
1,812744
-0,7049561
-9,970093
-2,01416
-6,747437
4,330444
3,726196
-8,660889
-4,129028
-5,639648
-4,431152
-4,934692
10,27222
-6,243896
3,222656
-0,302124
-0,302124
-0,100708
-4,733276
5,136108
-5,639648
-4,229736
-0,100708
-1,913452
-3,927612
4,934692
-4,53186
-6,747437
8,761597
-4,330444
5,438232
-11,2793
0,50354
4,934692
0,50354
-15,60974
2,215576
-1,309204
-4,833984
2,920532
6,546021
-7,955933
-6,04248
-2,114868
-4,229736
-2,316284
-3,121948
-8,157349
-0,100708
12,89063
-9,365845
-8,761597
7,351685
-4,129028
-7,150269
-4,431152
4,934692
-6,445313
-9,265137
3,726196
3,927612
-6,344604
6,344604
-2,920532
-0,7049561
-3,02124
-2,920532
-4,733276
0
-0,7049561
-6,546021
0,7049561
1,913452
9,164429
-0,100708
0,302124
1,611328
11,58142
-4,53186
-0,100708
-1,208496
-3,323364
-15,40833
-8,358765
-3,222656
-12,5885
-6,243896
3,222656
-2,316284
-4,330444
5,841064
2,416992
0,604248
-0,100708
0,50354
7,049561
-5,941772
-17,6239
3,52478
-12,28638
-4,129028
-2,01416
5,0354
-1,107788
1,309204
-1,107788
-0,100708
-3,02124
-2,416992
-4,129028
-3,02124
1,409912
-13,69629
-2,114868
-2,316284
-0,7049561
-5,0354
0,201416
-7,150269
-0,100708
-5,941772
3,02124
4,53186
-7,653809
-4,431152
1,107788
-1,309204
-8,358765
5,0354
2,01416
5,941772
-12,08496
-5,740356
0,9063721
-5,841064
4,431152
-1,409912
-5,337524
2,01416
-3,121948
2,114868
5,53894
-1,309204
4,129028
4,129028
-1,107788
-6,143188
-3,726196
-0,7049561
0,604248
-5,136108
-8,963013
-1,409912
1,00708
-11,88354
8,560181
5,941772
-4,53186
-3,121948
-5,639648
-3,625488
6,445313
1,913452
-2,819824
2,920532
1,208496
-1,913452
-2,719116
5,236816
-1,611328
0,201416
-3,726196
-0,8056641
1,00708
1,309204
-1,208496
-3,323364
-5,941772
-3,222656
2,819824
-8,963013
7,351685
1,107788
-6,143188
-3,927612
-4,733276
-7,351685
-3,02124
-3,927612
0,604248
-0,302124
-2,819824
4,330444
6,243896
-3,02124
8,157349
0,100708
-2,719116
0,9063721
-3,726196
3,121948
-6,445313
-0,7049561
-8,459473
4,330444
-1,107788
-6,747437
-12,28638
-6,646729
-1,107788
-6,344604
2,5177
-1,107788
-3,826904
-8,660889
-0,100708
-1,712036
-14,19983
-9,164429
-4,431152
-6,344604
-4,129028
-4,833984
2,01416
3,726196
2,920532
